II
0.96426
0.95065
0.91476
0.85974
0.78949
0.70823
0.62052
0.53122
0.44522
0.36562
0.29444
0.23319
0.18287
0.14398
0.11650
0.09993
0.09325
0.09492
0.10324
0.11679
0.13371
0.15236
0.17139
0.18969
0.20647
0.22116
0.23352
0.24353
0.25148
0.25787
0.26300
0.26712
0.27048
0.27329
0.27575
0.27803
0.28025
0.28253
0.28496
0.28758
0.29041
0.29347
0.29671
0.30009
0.30364
0.30741
0.31139
0.31559
0.32001
0.32466
0.32954
0.33464
0.33997
0.34552
0.35129
0.35727
0.36345
0.36983
0.37639
0.38313
0.39003
0.39710
0.40432
0.41166
0.41909
0.42658
0.43409
0.44160
0.44907
0.45648
0.46380
0.47100
0.47804
0.48491
0.49157
0.49801
0.50418
0.51007
0.51565
0.52089
0.52577
0.53027
0.53436
0.53802
0.54122
0.54395
0.54618
0.54788
0.54903
0.54956
0.54948
0.54881
0.54757
0.54580
0.54351
0.54074
0.53749
0.53380
0.52970
0.52520
0.52033
0.51511
0.50957
0.50373
0.49761
0.49125
0.48466
0.47787
0.47091
0.46379
0.45654
0.44919
0.44176
0.43427
0.42675
0.41923
0.41172
0.40426
0.39686
0.38955
0.38235
0.37530
0.36840
0.36170
0.35520
0.34894
0.34294
0.33722
0.33177
0.32657
0.32162
0.31693
0.31247
0.30826
0.30428
0.30053
0.29700
0.29370
0.29061
0.28772
0.28504
0.28255
0.28025
0.27813
0.27619
0.27442
0.27281
0.27136
0.27005
0.26889
0.26785
0.26694
0.26615
0.26546
0.26487
0.26437
0.26395
0.26360
0.26331
0.26308
0.26289
0.26276
0.26268
0.26265
0.26266
0.26271
0.26278
0.26288
0.26300
0.26314
0.26330
0.26347
0.26366
0.26387
0.26410
0.26435
0.26462
0.26492
0.26525
0.26563
0.26605
0.26653
0.26707
0.26768
0.26837
0.26916
0.27005
0.27106
0.27219
0.27348
0.27491
0.27649
0.27825
0.28023
0.28246
0.28499
0.28784
0.29102
0.29455
0.29846
0.30273
0.30738
0.31239
0.31777
0.32350
0.32955
0.33591
0.34255
0.34943
0.35652
0.36378
0.37114
0.37857
0.38604
0.39347
0.40076
0.40780
0.41449
0.42074
0.42647
0.43160
0.43608
0.43986
0.44288
0.44512
0.44655
0.44716
0.44693
0.44587
0.44400
0.44134
0.43790
0.43375
0.42891
0.42343
0.41734
0.41076
0.40381
0.39657
0.38915
0.38162
0.37407
0.36657
0.35918
0.35195
0.34494
0.33819
0.33172
0.32557
0.31975
0.31428
0.30916
0.30438
0.29994
0.29582
0.29199
0.28843
0.28533
0.28264
0.27980
0.27635
0.27196
0.26638
0.25948
0.25124
0.24173
0.23114
0.21976
0.20798
0.19631
0.18534
0.17556
0.16718
0.16271
0.16449
0.17438
0.19371
0.22331
0.26349
0.31407
0.37435
0.44313
0.51870
0.59883
0.68081
0.76140
0.83586
0.89827
0.94409
0.97012
0.97456
0.95696
0.91825
0.86071
0.78802
0.70521
0.61794
0.52913
0.44200
0.35947
0.28388
0.21704
0.16021
0.11407
0.07880
0.05401
0.03876
0.03273
0.03466
0.04276
0.05543
0.07124
0.08893
0.10740
0.12575
0.14323
0.15927
0.17349
0.18565
0.19572
0.20391
0.21061
0.21605
0.22048
0.22409
0.22709
0.22964
0.23190
0.23399
0.23605
0.23816
0.24041
0.24285
0.24553
0.24846
0.25165
0.25509
0.25874
0.26254
0.26644
0.27049
0.27474
0.27919
0.28385
0.28872
0.29380
0.29908
0.30458
0.31027
0.31616
0.32224
0.32851
0.33495
0.34156
0.34832
0.35522
0.36224
0.36938
0.37661
0.38391
0.39128
0.39868
0.40612
0.41357
0.42100
0.42837
0.43566
0.44284
0.44987
0.45673
0.46338
0.46981
0.47599
0.48190
0.48751
0.49280
0.49776
0.50235
0.50657
0.51040
0.51382
0.51682
0.51937
0.52148
0.52313
0.52431
0.52500
0.52521
0.52492
0.52408
0.52267
0.52073
0.51827
0.51534
0.51195
0.50813
0.50392
0.49933
0.49440
0.48914
0.48359
0.47778
0.47171
0.46542
0.45894
0.45228
0.44547
0.43853
0.43148
0.42434
0.41713
0.40988
0.40260
0.39532
0.38804
0.38080
0.37360
0.36647
0.35942
0.35248
0.34565
0.33895
0.33240
0.32601
0.31980
0.31378
0.30797
0.30237
0.29701
0.29189
0.28703
0.28241
0.27805
0.27392
0.27002
0.26634
0.26289
0.25964
0.25660
0.25375
0.25110
0.24862
0.24633
0.24420
0.24224
0.24043
0.23878
0.23727
0.23590
0.23466
0.23354
0.23255
0.23167
0.23090
0.23023
0.22965
0.22916
0.22876
0.22844
0.22819
0.22801
0.22788
0.22782
0.22781
0.22784
0.22791
0.22801
0.22815
0.22831
0.22849
0.22868
0.22891
0.22915
0.22941
0.22970
0.22999
0.23031
0.23064
0.23099
0.23135
0.23174
0.23216
0.23260
0.23307
0.23358
0.23414
0.23475
0.23542
0.23615
0.23696
0.23785
0.23884
0.23994
0.24115
0.24250
0.24398
0.24563
0.24745
0.24945
0.25166
0.25410
0.25676
0.25969
0.26289
0.26638
0.27019
0.27434
0.27884
0.28370
0.28890
0.29444
0.30031
0.30648
0.31295
0.31967
0.32663
0.33379
0.34111
0.34855
0.35606
0.36359
0.37108
0.37848
0.38573
0.39274
0.39945
0.40579
0.41166
0.41700
0.42176
0.42590
0.42938
0.43214
0.43418
0.43545
0.43596
0.43570
0.43467
0.43287
0.43034
0.42708
0.42315
0.41858
0.41342
0.40773
0.40158
0.39503
0.38817
0.38109
0.37385
0.36647
0.35904
0.35163
0.34431
0.33714
0.33018
0.32346
0.31702
0.31089
0.30510
0.29964
0.29453
0.28976
0.28531
0.28117
0.27731
0.27369
0.27026
0.26698
0.26378
0.26068
0.25749
0.25382
0.24936
0.24388
0.23726
0.22944
0.22043
0.21036
0.19941
0.18785
0.17606
0.16439
0.15381
0.14571
0.14137
0.14194
0.14844
0.16180
0.18277
0.21203
0.25009
0.29737
0.35414
0.42066
0.49563
0.57601
0.65859
0.74013
0.81724
0.88650
0.94437
0.98723
1.01139
1.01385
0.99580
0.95910
0.90586
0.83857
0.76004
0.67345
0.58233
0.49056
0.40237
0.32158
0.24843
0.18368
0.12803
0.08192
0.04552
0.01871
0.00113
-0.00787
-0.00921
-0.00408
0.00616
0.02043
0.03744
0.05603
0.07519
0.09409
0.11202
0.12846
0.14306
0.15560
0.16605
0.17452
0.18129
0.18679
0.19150
0.19549
0.19888
0.20182
0.20444
0.20684
0.20913
0.21139
0.21369
0.21609
0.21864
0.22136
0.22428
0.22739
0.23069
0.23416
0.23776
0.24152
0.24547
0.24961
0.25395
0.25848
0.26321
0.26814
0.27328
0.27861
0.28414
0.28986
0.29577
0.30187
0.30815
0.31459
0.32120
0.32796
0.33487
0.34191
0.34907
0.35634
0.36370
0.37114
0.37866
0.38626
0.39388
0.40152
0.40914
0.41672
0.42423
0.43165
0.43895
0.44611
0.45311
0.45992
0.46653
0.47291
0.47904
0.48490
0.49049
0.49576
0.50072
0.50534
0.50961
0.51351
0.51703
0.52015
0.52286
0.52514
0.52699
0.52839
0.52934
0.52981
0.52979
0.52922
0.52810
0.52648
0.52436
0.52177
0.51875
0.51531
0.51147
0.50726
0.50270
0.49781
0.49262
0.48714
0.48141
0.47543
0.46922
0.46282
0.45624
0.44949
0.44261
0.43559
0.42848
0.42128
0.41400
0.40668
0.39932
0.39195
0.38457
0.37721
0.36989
0.36261
0.35539
0.34825
0.34120
0.33426
0.32743
0.32075
0.31421
0.30782
0.30162
0.29559
0.28977
0.28415
0.27875
0.27358
0.26866
0.26398
0.25955
0.25536
0.25141
0.24768
0.24416
0.24086
0.23775
0.23485
0.23213
0.22959
0.22722
0.22502
0.22299
0.22111
0.21937
0.21778
0.21632
0.21499
0.21378
0.21270
0.21172
0.21085
0.21008
0.20940
0.20882
0.20832
0.20790
0.20755
0.20728
0.20707
0.20692
0.20683
0.20679
0.20679
0.20684
0.20694
0.20706
0.20722
0.20741
0.20762
0.20785
0.20811
0.20837
0.20865
0.20894
0.20924
0.20953
0.20983
0.21013
0.21044
0.21075
0.21107
0.21140
0.21174
0.21209
0.21247
0.21286
0.21328
0.21374
0.21423
0.21477
0.21537
0.21603
0.21676
0.21757
0.21847
0.21948
0.22060
0.22185
0.22324
0.22479
0.22651
0.22842
0.23052
0.23285
0.23541
0.23823
0.24132
0.24470
0.24837
0.25234
0.25663
0.26122
0.26614
0.27136
0.27689
0.28271
0.28881
0.29517
0.30176
0.30857
0.31557
0.32271
0.32996
0.33728
0.34463
0.35195
0.35920
0.36631
0.37323
0.37990
0.38624
0.39218
0.39766
0.40265
0.40710
0.41096
0.41421
0.41681
0.41873
0.41995
0.42047
0.42028
0.41938
0.41777
0.41546
0.41249
0.40886
0.40462
0.39981
0.39446
0.38864
0.38239
0.37578
0.36888
0.36177
0.35452
0.34713
0.33966
0.33220
0.32479
0.31749
0.31034
0.30339
0.29666
0.29020
0.28403
0.27815
0.27258
0.26733
0.26240
0.25777
0.25344
0.24938
0.24558
0.24199
0.23859
0.23533
0.23227
0.22925
0.22597
0.22217
0.21763
0.21220
0.20579
0.19833
0.18982
0.18032
0.16992
0.15877
0.14709
0.13507
0.12320
0.11265
0.10454
0.09991
0.09973
0.10486
0.11608
0.13408
0.15947
0.19277
0.23439
0.28469
0.34392
0.41223
0.48788
0.56827
0.65070
0.73240
0.81050
0.88204
0.94399
0.99322
1.02652
1.04063
1.03426
1.00823
0.96388
0.90330
0.82936
0.74567
0.65659
0.56709
0.48013
0.39810
0.32313
0.25683
0.20028
0.15402
0.11805
0.09255
0.07690
0.06972
0.06970
0.07559
0.08621
0.10041
0.11712
0.13531
0.15404
0.17239
0.18952
0.20463
0.21729
0.22781
0.23647
0.24356
0.24934
0.25404
0.25790
0.26109
0.26381
0.26620
0.26840
0.27054
0.27270
0.27495
0.27731
0.27980
0.28242
0.28519
0.28813
0.29123
0.29451
0.29797
0.30162
0.30547
0.30952
0.31377
0.31823
0.32289
0.32776
0.33283
0.33810
0.34358
0.34925
0.35513
0.36121
0.36748
0.37392
0.38052
0.38727
0.39414
0.40112
0.40819
0.41534
0.42255
0.42980
0.43707
0.44434
0.45160
0.45881
0.46597
0.47305
0.48003
0.48688
0.49359
0.50013
0.50647
0.51260
0.51850
0.52412
0.52946
0.53448
0.53916
0.54348
0.54739
0.55089
0.55396
0.55658
0.55876
0.56048
0.56174
0.56253
0.56286
0.56272
0.56212
0.56105
0.55951
0.55753
0.55509
0.55221
0.54890
0.54517
0.54104
0.53651
0.53161
0.52635
0.52075
0.51484
0.50862
0.50214
0.49540
0.48845
0.48131
0.47400
0.46656
0.45902
0.45143
0.44380
0.43616
0.42850
0.42086
0.41326
0.40570
0.39823
0.39084
0.38357
0.37642
0.36942
0.36257
0.35588
0.34938
0.34306
0.33693
0.33101
0.32530
0.31980
0.31453
0.30947
0.30464
0.30003
0.29564
0.29147
0.28752
0.28377
0.28024
0.27690
0.27375
0.27078
0.26799
0.26536
0.26291
0.26062
0.25848
0.25650
0.25465
0.25293
0.25134
0.24986
0.24849
0.24723
0.24606
0.24498
0.24399
0.24307
0.24222
0.24145
0.24073
0.24007
0.23947
0.23891
0.23840
0.23794
0.23751
0.23711
0.23675
0.23642
0.23611
0.23583
0.23557
0.23533
0.23511
0.23490
0.23472
0.23455
0.23441
0.23428
0.23418
0.23409
0.23402
0.23397
0.23394
0.23394
0.23398
0.23405
0.23416
0.23433
0.23455
0.23484
0.23520
0.23565
0.23620
0.23685
0.23763
0.23854
0.23960
0.24083
0.24223
0.24383
0.24565
0.24770
0.25000
0.25257
0.25544
0.25859
0.26205
0.26583
0.26994
0.27439
0.27917
0.28429
0.28974
0.29551
0.30157
0.30791
0.31449
0.32130
0.32828
0.33540
0.34262
0.34988
0.35714
0.36431
0.37136
0.37819
0.38475
0.39098
0.39683
0.40224
0.40713
0.41144
0.41514
0.41816
0.42049
0.42209
0.42294
0.42304
0.42239
0.42097
0.41882
0.41595
0.41238
0.40817
0.40334
0.39795
0.39206
0.38575
0.37907
0.37206
0.36479
0.35734
0.34977
0.34216
0.33457
0.32706
0.31967
0.31245
0.30544
0.29867
0.29218
0.28598
0.28008
0.27451
0.26927
0.26436
0.25976
0.25548
0.25149
0.24778
0.24441
0.24120
0.23796
0.23450
0.23068
0.22632
0.22131
0.21552
0.20885
0.20121
0.19253
0.18274
0.17180
0.15965
0.14691
0.13461
0.12377
0.11536
0.11032
0.10957
0.11398
0.12440
0.14167
0.16657
0.19986
0.24228
0.29481
0.35820
0.43003
0.50759
0.58811
0.66882
0.74691
0.81955
0.88389
0.93704
0.97609
0.99811
1.00014
0.97988
0.93959
0.88314
0.81418
0.73613
0.65218
0.56528
0.47815
0.39326
0.31286
0.23897
0.17337
0.11759
0.07223
0.03684
0.01082
-0.00646
-0.01575
-0.01786
-0.01368
-0.00419
0.00957
0.02646
0.04527
0.06470
0.08340
0.10056
0.11608
0.12990
0.14200
0.15240
0.16117
0.16840
0.17423
0.17885
0.18248
0.18537
0.18782
0.19014
0.19240
0.19461
0.19680
0.19903
0.20132
0.20370
0.20620
0.20884
0.21164
0.21461
0.21777
0.22111
0.22465
0.22838
0.23229
0.23639
0.24066
0.24513
0.24979
0.25465
0.25970
0.26495
0.27038
0.27600
0.28180
0.28778
0.29393
0.30025
0.30671
0.31332
0.32007
0.32693
0.33391
0.34097
0.34812
0.35533
0.36258
0.36986
0.37716
0.38443
0.39168
0.39887
0.40597
0.41298
0.41985
0.42660
0.43319
0.43960
0.44580
0.45176
0.45746
0.46287
0.46797
0.47275
0.47717
0.48122
0.48490
0.48817
0.49104
0.49348
0.49549
0.49707
0.49820
0.49888
0.49911
0.49889
0.49821
0.49709
0.49551
0.49350
0.49105
0.48817
0.48488
0.48118
0.47708
0.47257
0.46768
0.46243
0.45686
0.45098
0.44482
0.43841
0.43177
0.42493
0.41791
0.41073
0.40341
0.39599
0.38846
0.38087
0.37323
0.36555
0.35786
0.35018
0.34253
0.33491
0.32736
0.31988
0.31250
0.30522
0.29807
0.29105
0.28419
0.27749
0.27097
0.26464
0.25851
0.25260
0.24691
0.24145
0.23621
0.23119
0.22638
0.22179
0.21741
0.21323
0.20926
0.20548
0.20190
0.19852
0.19532
0.19230
0.18946
0.18679
0.18430
0.18197
0.17980
0.17778
0.17591
0.17419
0.17261
0.17116
0.16984
0.16865
0.16757
0.16659
0.16573
0.16496
0.16428
0.16369
0.16317
0.16273
0.16235
0.16203
0.16176
0.16153
0.16133
0.16117
0.16106
0.16099
0.16096
0.16097
0.16101
0.16107
0.16115
0.16124
0.16135
0.16147
0.16160
0.16173
0.16187
0.16202
0.16218
0.16234
0.16252
0.16271
0.16291
0.16313
0.16338
0.16366
0.16397
0.16432
0.16472
0.16517
0.16569
0.16627
0.16694
0.16769
0.16855
0.16951
0.17060
0.17182
0.17319
0.17471
0.17642
0.17831
0.18040
0.18274
0.18543
0.18846
0.19183
0.19553
0.19955
0.20387
0.20849
0.21339
0.21855
0.22395
0.22959
0.23542
0.24145
0.24764
0.25397
0.26041
0.26694
0.27354
0.28016
0.28679
0.29339
0.29993
0.30637
0.31269
0.31884
0.32478
0.33048
0.33590
0.34099
0.34571
0.35003
0.35388
0.35724
0.36004
0.36224
0.36379
0.36464
0.36474
0.36402
0.36244
0.35991
0.35640
0.35202
0.34689
0.34112
0.33480
0.32804
0.32092
0.31353
0.30595
0.29824
0.29049
0.28274
0.27506
0.26749
0.26008
0.25287
0.24588
0.23915
0.23269
0.22652
0.22064
0.21507
0.20980
0.20482
0.20011
0.19565
0.19143
0.18740
0.18352
0.17977
0.17608
0.17240
0.16867
0.16482
0.16078
0.15647
0.15181
0.14670
0.14104
0.13475
0.12770
0.11979
0.11089
0.10087
0.08962
0.07710
0.06430
0.05261
0.04330
0.03751
0.03627
0.04047
0.05087
0.06811
0.09269
0.12501
0.16532
0.21375
0.27030
0.33485
0.40716
0.48683
0.57087
0.65499
0.73534
0.80847
0.87138
0.92147
0.95657
0.97492
0.97519
0.95657
0.92013
0.86836
0.80382
0.72914
0.64694
0.55991
0.47075
0.38220
0.29705
0.21771
0.14533
0.08068
0.02434
-0.02330
-0.06208
-0.09203
-0.11337
-0.12654
-0.13218
-0.13112
-0.12442
-0.11331
-0.09885
-0.08199
-0.06366
-0.04468
-0.02576
-0.00748
0.00966
0.02530
0.03919
0.05118
0.06125
0.06947
0.07605
0.08129
0.08561
0.08948
0.09289
0.09590
0.09860
0.10108
0.10341
0.10566
0.10789
0.11015
0.11249
0.11494
0.11754
0.12030
0.12324
0.12636
0.12966
0.13314
0.13678
0.14054
0.14447
0.14857
0.15285
0.15730
0.16194
0.16677
0.17178
0.17697
0.18235
0.18791
0.19365
0.19956
0.20565
0.21190
0.21830
0.22487
0.23157
0.23841
0.24538
0.25246
0.25965
0.26693
0.27429
0.28171
0.28919
0.29671
0.30424
0.31178
0.31931
0.32685
0.33436
0.34182
0.34921
0.35649
0.36365
0.37065
0.37748
0.38412
0.39054
0.39672
0.40265
0.40831
0.41368
0.41875
0.42351
0.42793
0.43200
0.43573
0.43909
0.44207
0.44467
0.44688
0.44870
0.45011
0.45112
0.45172
0.45190
0.45168
0.45104
0.44999
0.44853
0.44667
0.44440
0.44174
0.43867
0.43521
0.43136
0.42715
0.42259
0.41772
0.41254
0.40707
0.40135
0.39537
0.38917
0.38277
0.37617
0.36940
0.36248
0.35542
0.34825
0.34097
0.33362
0.32619
0.31872
0.31122
0.30370
0.29618
0.28867
0.28120
0.27377
0.26641
0.25913
0.25194
0.24485
0.23789
0.23107
0.22439
0.21788
0.21155
0.20540
0.19942
0.19363
0.18803
0.18261
0.17737
0.17233
0.16747
0.16280
0.15832
0.15403
0.14992
0.14600
0.14226
0.13871
0.13533
0.13213
0.12911
0.12625
0.12357
0.12104
0.11868
0.11647
0.11441
0.11250
0.11073
0.10909
0.10758
0.10619
0.10492
0.10375
0.10269
0.10172
0.10083
0.10002
0.09929
0.09863
0.09804
0.09753
0.09708
0.09670
0.09637
0.09609
0.09585
0.09566
0.09551
0.09539
0.09531
0.09525
0.09522
0.09522
0.09523
0.09527
0.09533
0.09540
0.09550
0.09560
0.09573
0.09586
0.09602
0.09619
0.09637
0.09658
0.09680
0.09705
0.09732
0.09761
0.09793
0.09828
0.09866
0.09908
0.09954
0.10004
0.10059
0.10119
0.10184
0.10256
0.10334
0.10416
0.10502
0.10596
0.10699
0.10814
0.10943
0.11088
0.11250
0.11432
0.11635
0.11860
0.12109
0.12382
0.12680
0.13005
0.13357
0.13735
0.14142
0.14576
0.15038
0.15527
0.16044
0.16588
0.17158
0.17754
0.18374
0.19018
0.19685
0.20373
0.21080
0.21806
0.22547
0.23306
0.24076
0.24852
0.25626
0.26393
0.27145
0.27878
0.28587
0.29266
0.29910
0.30516
0.31079
0.31596
0.32063
0.32478
0.32837
0.33139
0.33381
0.33561
0.33679
0.33733
0.33723
0.33648
0.33508
0.33304
0.33036
0.32704
0.32309
0.31857
0.31355
0.30807
0.30220
0.29599
0.28949
0.28275
0.27583
0.26876
0.26159
0.25437
0.24713
0.23991
0.23275
0.22567
0.21872
0.21192
0.20529
0.19887
0.19267
0.18672
0.18103
0.17563
0.17052
0.16573
0.16129
0.15719
0.15337
0.14977
0.14633
0.14298
0.13964
0.13624
0.13270
0.12893
0.12485
0.12036
0.11537
0.10978
0.10349
0.09639
0.08837
0.07931
0.06911
0.05734
0.04407
0.03034
0.01717
0.00547
-0.00388
-0.01009
-0.01243
-0.01023
-0.00290
0.01009
0.02921
0.05484
0.08732
0.12691
0.17381
0.22813
0.28994
0.35924
0.43570
0.51705
0.60045
0.68312
0.76231
0.83534
0.89956
0.95235
0.99115
1.01344
1.01783
1.00304
0.96843
0.91528
0.84687
0.76836
0.68335
0.59467
0.50583
0.41980
0.33908
0.26573
0.20149
0.14679
0.10176
0.06634
0.04029
0.02319
0.01446
0.01332
0.01882
0.02983
0.04504
0.06298
0.08198
0.10077
0.11886
0.13583
0.15136
0.16522
0.17726
0.18745
0.19580
0.20247
0.20765
0.21166
0.21491
0.21784
0.22052
0.22299
0.22533
0.22760
0.22986
0.23217
0.23456
0.23707
0.23974
0.24257
0.24558
0.24878
0.25216
0.25571
0.25942
0.26331
0.26738
0.27164
0.27610
0.28075
0.28559
0.29064
0.29587
0.30130
0.30692
0.31272
0.31870
0.32486
0.33117
0.33764
0.34425
0.35100
0.35787
0.36484
0.37190
0.37904
0.38624
0.39348
0.40075
0.40804
0.41534
0.42260
0.42980
0.43692
0.44392
0.45078
0.45747
0.46398
0.47027
0.47632
0.48212
0.48764
0.49287
0.49778
0.50236
0.50659
0.51045
0.51394
0.51703
0.51971
0.52198
0.52383
0.52523
0.52619
0.52670
0.52674
0.52632
0.52540
0.52394
0.52196
0.51950
0.51657
0.51320
0.50942
0.50525
0.50071
0.49583
0.49064
0.48514
0.47938
0.47336
0.46711
0.46066
0.45402
0.44722
0.44027
0.43319
0.42601
0.41874
0.41141
0.40402
0.39661
0.38918
0.38176
0.37435
0.36699
0.35968
0.35244
0.34528
0.33822
0.33128
0.32447
0.31780
0.31129
0.30495
0.29879
0.29283
0.28707
0.28154
0.27623
0.27117
0.26635
0.26179
0.25746
0.25337
0.24950
0.24586
0.24242
0.23919
0.23615
0.23330
0.23064
0.22816
0.22585
0.22370
0.22171
0.21987
0.21818
0.21663
0.21521
0.21392
0.21275
0.21170
0.21076
0.20993
0.20920
0.20856
0.20802
0.20756
0.20718
0.20687
0.20664
0.20647
0.20637
0.20632
0.20633
0.20639
0.20649
0.20663
0.20681
0.20702
0.20726
0.20753
0.20782
0.20813
0.20846
0.20880
0.20914
0.20950
0.20986
0.21024
0.21064
0.21105
0.21148
0.21192
0.21239
0.21288
0.21340
0.21395
0.21453
0.21516
0.21584
0.21657
0.21737
0.21824
0.21920
0.22024
0.22139
0.22265
0.22405
0.22558
0.22726
0.22912
0.23115
0.23339
0.23584
0.23853
0.24147
0.24467
0.24817
0.25197
0.25607
0.26048
0.26520
0.27025
0.27561
0.28128
0.28725
0.29351
0.30003
0.30680
0.31378
0.32095
0.32827
0.33570
0.34321
0.35073
0.35822
0.36563
0.37289
0.37994
0.38671
0.39313
0.39913
0.40468
0.40973
0.41422
0.41810
0.42134
0.42391
0.42577
0.42691
0.42732
0.42699
0.42593
0.42414
0.42165
0.41847
0.41464
0.41019
0.40517
0.39963
0.39362
0.38722
0.38049
0.37352
0.36632
0.35896
0.35150
0.34402
0.33657
0.32920
0.32197
0.31491
0.30808
0.30149
0.29517
0.28915
0.28344
0.27805
0.27297
0.26822
0.26377
0.25962
0.25575
0.25212
0.24871
0.24556
0.24258
0.23950
0.23611
0.23221
0.22765
0.22230
0.21605
0.20885
0.20064
0.19144
0.18125
0.17014
0.15816
0.14579
0.13408
0.12405
0.11667
0.11288
0.11356
0.11955
0.13166
0.15063
0.17717
0.21194
0.25556
0.30853
0.37043
0.44026
0.51656
0.59741
0.68038
0.76255
0.84053
0.91044
0.96830
1.01143
1.03585
1.03854
1.01773
0.97320
0.90898
0.83078
0.74422
0.65494
0.56859
0.48923
0.41925
0.36035
0.31357
0.27933
0.25739
0.24683
0.24613
0.25311
0.26582
0.28231
0.30066
0.31930
0.33697
0.35279
0.36615
0.37684
0.38492
0.39084
0.39534
0.39893
0.40175
0.40404
0.40602
0.40786
0.40971
0.41167
0.41380
0.41613
0.41864
0.42132
0.42422
0.42734
0.43069
0.43429
0.43813
0.44223
0.44659
0.45120
0.45606
0.46118
0.46654
0.47215
0.47798
0.48404
0.49030
0.49676
0.50347
0.51039
0.51747
0.52469
0.53198
0.53930
0.54662
0.55390
0.56109
0.56815
0.57505
0.58176
0.58825
0.59447
0.60040
0.60602
0.61128
0.61616
0.62065
0.62471
0.62832
0.63146
0.63411
0.63625
0.63787
0.63895
0.63948
0.63944
0.63882
0.63762
0.63580
0.63334
0.63028
0.62666
0.62253
0.61792
0.61289
0.60746
0.60167
0.59556
0.58918
0.58255
0.57570
0.56868
0.56151
0.55422
0.54685
0.53942
0.53197
0.52452
0.51709
0.50971
0.50242
0.49522
0.48815
0.48121
0.47445
0.46787
0.46149
0.45533
0.44941
0.44375
0.43835
0.43323
0.42841
0.42386
0.41958
0.41556
0.41178
0.40824
0.40492
0.40182
0.39892
0.39622
0.39370
0.39137
0.38920
0.38719
0.38533
0.38362
0.38204
0.38059
0.37926
0.37804
0.37693
0.37592
0.37500
0.37416
0.37341
0.37273
0.37212
0.37157
0.37107
0.37063
0.37024
0.36989
0.36958
0.36930
0.36905
0.36883
0.36863
0.36845
0.36829
0.36815
0.36804
0.36797
0.36794
0.36795
0.36802
0.36815
0.36835
0.36864
0.36902
0.36952
0.37015
0.37091
0.37184
0.37295
0.37425
0.37577
0.37753
0.37956
0.38187
0.38450
0.38747
0.39080
0.39454
0.39872
0.40343
0.40863
0.41426
0.42027
0.42662
0.43326
0.44012
0.44715
0.45429
0.46148
0.46866
0.47576
0.48272
0.48946
0.49592
0.50202
0.50770
0.51286
0.51744
0.52136
0.52453
0.52686
0.52828
0.52870
0.52799
0.52609
0.52316
0.51931
0.51467
0.50937
0.50352
0.49723
0.49059
0.48371
0.47665
0.46951
0.46236
0.45525
0.44825
0.44142
0.43478
0.42838
0.42226
0.41642
0.41090
0.40569
0.40080
0.39622
0.39195
0.38796
0.38423
0.38072
0.37744
0.37399
0.36990
0.36482
0.35849
0.35082
0.34177
0.33148
0.32016
0.30815
0.29588
0.28457
0.27613
0.27227
0.27453
0.28429
0.30272
0.33083
0.36944
0.41918
0.48048
0.55212
0.63101
0.71335
0.79471
0.87002
0.93357
0.97908
1.00207
1.00064
0.97448
0.92525
0.85651
0.77382
0.68463
0.59697
0.51589
0.44517
0.38735
0.34375
0.31447
0.29843
0.29457
0.30035
0.31267
0.32887
0.34675
0.36454
0.38093
0.39503
0.40643
0.41513
0.42166
0.42664
0.43041
0.43328
0.43552
0.43737
0.43904
0.44070
0.44250
0.44454
0.44690
0.44963
0.45274
0.45619
0.45995
0.46392
0.46806
0.47248
0.47718
0.48216
0.48742
0.49295
0.49874
0.50478
0.51105
0.51752
0.52418
0.53100
0.53795
0.54499
0.55208
0.55920
0.56628
0.57330
0.58019
0.58695
0.59354
0.59989
0.60594
0.61163
0.61690
0.62170
0.62599
0.62974
0.63290
0.63545
0.63737
0.63865
0.63926
0.63921
0.63849
0.63711
0.63507
0.63240
0.62910
0.62521
0.62075
0.61577
0.61030
0.60439
0.59808
0.59140
0.58436
0.57703
0.56947
0.56174
0.55390
0.54598
0.53805
0.53013
0.52228
0.51453
0.50691
0.49946
0.49221
0.48516
0.47836
0.47182
0.46555
0.45956
0.45386
0.44846
0.44336
0.43856
0.43405
0.42983
0.42592
0.42230
0.41896
0.41589
0.41307
0.41048
0.40811
0.40595
0.40398
0.40218
0.40055
0.39907
0.39774
0.39653
0.39544
0.39447
0.39360
0.39282
0.39212
0.39150
0.39095
0.39047
0.39004
0.38966
0.38933
0.38905
0.38880
0.38859
0.38841
0.38827
0.38815
0.38807
0.38800
0.38795
0.38793
0.38797
0.38807
0.38826
0.38855
0.38897
0.38953
0.39026
0.39117
0.39229
0.39364
0.39524
0.39713
0.39932
0.40183
0.40471
0.40796
0.41163
0.41573
0.42030
0.42536
0.43104
0.43737
0.44421
0.45142
0.45887
0.46643
0.47398
0.48142
0.48863
0.49552
0.50199
0.50796
0.51334
0.51806
0.52207
0.52528
0.52766
0.52915
0.52972
0.52933
0.52794
0.52555
0.52213
0.51770
0.51240
0.50639
0.49983
0.49287
0.48564
0.47827
0.47087
0.46353
0.45634
0.44938
0.44271
0.43638
0.43043
0.42489
0.41978
0.41511
0.41085
0.40702
0.40366
0.40045
0.39700
0.39300
0.38815
0.38225
0.37511
0.36661
0.35666
0.34524
0.33240
0.31990
0.30997
0.30465
0.30577
0.31499
0.33378
0.36341
0.40495
0.45929
0.52702
0.60491
0.68713
0.76776
0.84072
0.89984
0.93884
0.95135
0.93624
0.89706
0.83675
0.75941
0.67019
0.57542
0.48249
0.39952
0.32772
0.26701
0.21813
0.18135
0.15651
0.14296
0.13961
0.14492
0.15688
0.17304
0.19111
0.20974
0.22774
0.24423
0.25857
0.27042
0.27972
0.28669
0.29181
0.29583
0.29911
0.30182
0.30415
0.30629
0.30836
0.31048
0.31274
0.31520
0.31787
0.32076
0.32383
0.32711
0.33061
0.33435
0.33832
0.34255
0.34702
0.35175
0.35672
0.36195
0.36741
0.37311
0.37905
0.38520
0.39156
0.39813
0.40492
0.41189
0.41900
0.42623
0.43353
0.44087
0.44822
0.45553
0.46278
0.46994
0.47696
0.48382
0.49049
0.49693
0.50311
0.50901
0.51458
0.51981
0.52466
0.52910
0.53310
0.53664
0.53969
0.54222
0.54421
0.54562
0.54641
0.54651
0.54595
0.54476
0.54297
0.54061
0.53772
0.53432
0.53045
0.52614
0.52142
0.51632
0.51086
0.50508
0.49901
0.49268
0.48611
0.47933
0.47238
0.46529
0.45807
0.45076
0.44338
0.43597
0.42855
0.42114
0.41378
0.40649
0.39930
0.39223
0.38531
0.37856
0.37201
0.36569
0.35962
0.35383
0.34833
0.34313
0.33820
0.33354
0.32915
0.32502
0.32114
0.31751
0.31411
0.31095
0.30801
0.30528
0.30276
0.30045
0.29832
0.29638
0.29461
0.29301
0.29156
0.29026
0.28910
0.28807
0.28716
0.28635
0.28564
0.28502
0.28448
0.28400
0.28357
0.28321
0.28291
0.28266
0.28245
0.28229
0.28215
0.28204
0.28196
0.28190
0.28185
0.28183
0.28183
0.28185
0.28189
0.28195
0.28205
0.28218
0.28235
0.28256
0.28284
0.28318
0.28359
0.28408
0.28467
0.28538
0.28620
0.28713
0.28819
0.28943
0.29089
0.29261
0.29462
0.29695
0.29962
0.30266
0.30607
0.30988
0.31407
0.31866
0.32363
0.32899
0.33471
0.34078
0.34718
0.35388
0.36084
0.36805
0.37550
0.38308
0.39064
0.39806
0.40523
0.41204
0.41840
0.42422
0.42942
0.43393
0.43770
0.44068
0.44283
0.44411
0.44452
0.44405
0.44268
0.44043
0.43732
0.43337
0.42860
0.42303
0.41681
0.41009
0.40299
0.39562
0.38810
0.38051
0.37296
0.36550
0.35823
0.35118
0.34440
0.33794
0.33182
0.32605
0.32065
0.31561
0.31092
0.30655
0.30247
0.29863
0.29499
0.29157
0.28855
0.28525
0.28104
0.27546
0.26826
0.25939
0.24897
0.23733
0.22497
0.21260
0.20112
0.19162
0.18526
0.18216
0.18500
0.19659
0.21888
0.25302
0.29933
0.35727
0.42552
0.50189
0.58339
0.66619
0.74563
0.81623
0.87154
0.90676
0.91971
0.91051
0.88163
0.83676
0.77691
0.70484
0.62370
0.53684
0.44780
0.35976
0.27511
0.19586
0.12364
0.05970
0.00492
-0.04020
-0.07556
-0.10140
-0.11836
-0.12723
-0.12829
-0.12295
-0.11264
-0.09866
-0.08218
-0.06422
-0.04566
-0.02727
-0.00965
0.00671
0.02147
0.03442
0.04550
0.05477
0.06252
0.06931
0.07531
0.08058
0.08523
0.08933
0.09296
0.09620
0.09911
0.10176
0.10422
0.10654
0.10878
0.11098
0.11321
0.11549
0.11787
0.12038
0.12306
0.12593
0.12902
0.13235
0.13593
0.13978
0.14390
0.14830
0.15298
0.15794
0.16317
0.16866
0.17439
0.18035
0.18651
0.19285
0.19934
0.20594
0.21261
0.21933
0.22621
0.23324
0.24040
0.24767
0.25502
0.26244
0.26990
0.27739
0.28489
0.29237
0.29981
0.30720
0.31452
0.32174
0.32885
0.33583
0.34266
0.34932
0.35579
0.36206
0.36810
0.37391
0.37946
0.38473
0.38971
0.39438
0.39872
0.40272
0.40636
0.40963
0.41250
0.41496
0.41700
0.41860
0.41975
0.42044
0.42068
0.42047
0.41982
0.41873
0.41722
0.41528
0.41292
0.41016
0.40701
0.40347
0.39957
0.39530
0.39070
0.38576
0.38051
0.37496
0.36913
0.36304
0.35671
0.35016
0.34341
0.33648
0.32939
0.32216
0.31483
0.30742
0.29994
0.29244
0.28494
0.27745
0.27000
0.26259
0.25523
0.24795
0.24076
0.23368
0.22672
0.21989
0.21321
0.20668
0.20032
0.19414
0.18813
0.18232
0.17670
0.17128
0.16607
0.16107
0.15627
0.15169
0.14732
0.14315
0.13920
0.13546
0.13191
0.12857
0.12541
0.12244
0.11965
0.11705
0.11462
0.11237
0.11028
0.10834
0.10656
0.10492
0.10342
0.10205
0.10080
0.09966
0.09864
0.09772
0.09690
0.09618
0.09554
0.09498
0.09450
0.09410
0.09376
0.09349
0.09327
0.09311
0.09300
0.09294
0.09292
0.09295
0.09301
0.09310
0.09323
0.09338
0.09356
0.09376
0.09399
0.09423
0.09450
0.09478
0.09508
0.09539
0.09571
0.09605
0.09641
0.09678
0.09716
0.09757
0.09799
0.09843
0.09890
0.09940
0.09993
0.10049
0.10110
0.10176
0.10247
0.10324
0.10409
0.10501
0.10602
0.10713
0.10834
0.10967
0.11114
0.11274
0.11450
0.11642
0.11853
0.12083
0.12334
0.12607
0.12905
0.13229
0.13581
0.13962
0.14379
0.14832
0.15319
0.15838
0.16388
0.16965
0.17569
0.18196
0.18845
0.19511
0.20194
0.20888
0.21593
0.22304
0.23018
0.23731
0.24440
0.25141
0.25831
0.26504
0.27158
0.27788
0.28388
0.28956
0.29485
0.29971
0.30410
0.30796
0.31123
0.31387
0.31582
0.31703
0.31743
0.31697
0.31568
0.31362
0.31085
0.30742
0.30340
0.29883
0.29377
0.28827
0.28238
0.27615
0.26963
0.26287
0.25590
0.24877
0.24153
0.23422
0.22687
0.21952
0.21221
0.20497
0.19785
0.19086
0.18405
0.17744
0.17106
0.16494
0.15911
0.15358
0.14838
0.14353
0.13908
0.13519
0.13176
0.12860
0.12554
0.12242
0.11909
0.11544
0.11134
0.10672
0.10148
0.09557
0.08894
0.08156
0.07342
0.06452
0.05488
0.04454
0.03354
0.02194
0.00913
-0.00422
-0.01622
-0.02519
-0.02968
-0.02850
-0.02064
-0.00535
0.01789
0.04940
0.08923
0.13723
0.19302
0.25598
0.32526
0.39981
0.47830
0.55923
0.64083
0.72051
0.79341
0.85587
0.90509
0.93913
0.95681
0.95780
0.94257
0.91230
0.86752
0.80984
0.74137
0.66428
0.58086
0.49343
0.40441
0.31630
0.23112
0.15025
0.07484
0.00584
-0.05602
-0.11018
-0.15629
-0.19419
-0.22395
-0.24579
-0.26017
-0.26773
-0.26926
-0.26506
-0.25604
-0.24323
-0.22760
-0.20998
-0.19116
-0.17181
-0.15252
-0.13379
-0.11601
-0.09952
-0.08453
-0.07119
-0.05954
-0.04953
-0.04104
-0.03384
-0.02761
-0.02216
-0.01740
-0.01324
-0.00957
-0.00630
-0.00336
-0.00066
0.00187
0.00428
0.00664
0.00900
0.01141
0.01390
0.01650
0.01925
0.02216
0.02524
0.02850
0.03194
0.03556
0.03934
0.04326
0.04730
0.05143
0.05569
0.06009
0.06465
0.06936
0.07423
0.07926
0.08444
0.08978
0.09527
0.10092
0.10672
0.11267
0.11877
0.12500
0.13138
0.13789
0.14452
0.15128
0.15815
0.16512
0.17219
0.17936
0.18660
0.19391
0.20127
0.20869
0.21614
0.22362
0.23111
0.23859
0.24606
0.25349
0.26088
0.26820
0.27546
0.28264
0.28972
0.29668
0.30351
0.31019
0.31670
0.32302
0.32913
0.33503
0.34070
0.34612
0.35128
0.35617
0.36078
0.36510
0.36911
0.37281
0.37618
0.37923
0.38193
0.38430
0.38631
0.38797
0.38926
0.39019
0.39075
0.39094
0.39076
0.39020
0.38927
0.38796
0.38628
0.38422
0.38181
0.37905
0.37595
0.37251
0.36876
0.36470
0.36034
0.35569
0.35077
0.34558
0.34014
0.33447
0.32856
0.32245
0.31614
0.30964
0.30297
0.29615
0.28919
0.28210
0.27490
0.26761
0.26025
0.25282
0.24536
0.23787
0.23037
0.22288
0.21542
0.20799
0.20061
0.19328
0.18602
0.17884
0.17175
0.16476
0.15788
0.15112
0.14448
0.13798
0.13162
0.12540
0.11934
0.11344
0.10770
0.10212
0.09672
0.09149
0.08643
0.08156
0.07686
0.07234
0.06799
0.06383
0.05984
0.05602
0.05238
0.04891
0.04560
0.04245
0.03946
0.03662
0.03394
0.03141
0.02903
0.02680
0.02470
0.02274
0.02091
0.01920
0.01760
0.01612
0.01475
0.01348
0.01231
0.01124
0.01026
0.00936
0.00854
0.00781
0.00715
0.00655
0.00603
0.00557
0.00517
0.00482
0.00453
0.00430
0.00410
0.00396
0.00386
0.00379
0.00377
0.00378
0.00382
0.00390
0.00400
0.00413
0.00429
0.00447
0.00468
0.00490
0.00515
0.00542
0.00570
0.00600
0.00631
0.00664
0.00699
0.00735
0.00772
0.00811
0.00851
0.00893
0.00936
0.00980
0.01027
0.01076
0.01127
0.01182
0.01239
0.01299
0.01364
0.01433
0.01506
0.01585
0.01670
0.01760
0.01858
0.01963
0.02077
0.02199
0.02331
0.02473
0.02626
0.02791
0.02969
0.03161
0.03366
0.03588
0.03825
0.04080
0.04354
0.04646
0.04960
0.05295
0.05652
0.06034
0.06441
0.06874
0.07338
0.07836
0.08367
0.08927
0.09515
0.10128
0.10765
0.11423
0.12100
0.12793
0.13501
0.14220
0.14948
0.15684
0.16423
0.17164
0.17904
0.18641
0.19371
0.20093
0.20803
0.21498
0.22176
0.22833
0.23468
0.24077
0.24656
0.25204
0.25716
0.26191
0.26624
0.27012
0.27353
0.27643
0.27879
0.28057
0.28174
0.28227
0.28212
0.28125
0.27962
0.27730
0.27434
0.27080
0.26672
0.26216
0.25717
0.25179
0.24608
0.24006
0.23379
0.22731
0.22065
0.21386
0.20696
0.19999
0.19298
0.18596
0.17896
0.17200
0.16511
0.15831
0.15163
0.14508
0.13868
0.13244
0.12638
0.12051
0.11484
0.10939
0.10415
0.09913
0.09434
0.08977
0.08544
0.08132
0.07743
0.07376
0.07029
0.06703
0.06405
0.06161
0.05940
0.05712
0.05450
0.05132
0.04740
0.04260
0.03683
0.03004
0.02222
0.01342
0.00370
-0.00680
-0.01792
-0.02946
-0.04115
-0.05271
-0.06379
-0.07402
-0.08296
-0.09015
-0.09553
-0.09830
-0.09726
-0.09136
-0.07976
-0.06178
-0.03692
-0.00485
0.03457
0.08130
0.13515
0.19573
0.26246
0.33462
0.41129
0.49136
0.57357
0.65646
0.73762
0.81417
0.88358
0.94353
0.99190
1.02681
1.04692
1.05125
1.03813
1.00656
0.95668
0.89153
0.81468
0.72991
0.64124
0.55247
0.46653
0.38586
0.31243
0.24774
0.19283
0.14828
0.11419
0.09019
0.07547
0.06917
0.07070
0.07839
0.09065
0.10609
0.12346
0.14169
0.15988
0.17731
0.19340
0.20777
0.22019
0.23060
0.23912
0.24617
0.25211
0.25708
0.26123
0.26469
0.26759
0.27005
0.27216
0.27404
0.27578
0.27745
0.27913
0.28089
0.28278
0.28486
0.28716
0.28971
0.29255
0.29568
0.29910
0.30283
0.30684
0.31112
0.31564
0.32036
0.32524
0.33022
0.33533
0.34065
0.34616
0.35187
0.35776
0.36383
0.37007
0.37647
0.38302
0.38971
0.39652
0.40343
0.41044
0.41753
0.42467
0.43186
0.43907
0.44627
0.45345
0.46059
0.46765
0.47462
0.48147
0.48817
0.49470
0.50105
0.50720
0.51311
0.51876
0.52411
0.52915
0.53385
0.53817
0.54212
0.54566
0.54878
0.55147
0.55372
0.55551
0.55683
0.55768
0.55806
0.55796
0.55739
0.55634
0.55481
0.55282
0.55037
0.54747
0.54414
0.54037
0.53620
0.53164
0.52670
0.52142
0.51580
0.50985
0.50358
0.49704
0.49024
0.48323
0.47602
0.46865
0.46115
0.45354
0.44584
0.43809
0.43030
0.42249
0.41470
0.40693
0.39921
0.39156
0.38399
0.37652
0.36917
0.36195
0.35488
0.34796
0.34121
0.33463
0.32825
0.32207
0.31609
0.31032
0.30477
0.29944
0.29435
0.28950
0.28489
0.28050
0.27634
0.27239
0.26865
0.26511
0.26177
0.25863
0.25567
0.25289
0.25029
0.24785
0.24558
0.24346
0.24150
0.23968
0.23800
0.23645
0.23503
0.23373
0.23255
0.23148
0.23051
0.22964
0.22887
0.22818
0.22757
0.22704
0.22658
0.22619
0.22585
0.22557
0.22534
0.22515
0.22500
0.22488
0.22479
0.22472
0.22467
0.22467
0.22469
0.22473
0.22480
0.22489
0.22499
0.22511
0.22524
0.22539
0.22555
0.22574
0.22593
0.22616
0.22640
0.22668
0.22700
0.22735
0.22775
0.22821
0.22873
0.22933
0.23000
0.23077
0.23163
0.23262
0.23373
0.23498
0.23638
0.23795
0.23971
0.24167
0.24385
0.24626
0.24893
0.25187
0.25511
0.25866
0.26253
0.26672
0.27124
0.27610
0.28127
0.28677
0.29257
0.29866
0.30501
0.31161
0.31843
0.32544
0.33259
0.33985
0.34718
0.35452
0.36183
0.36906
0.37613
0.38299
0.38956
0.39579
0.40158
0.40687
0.41159
0.41570
0.41917
0.42197
0.42408
0.42548
0.42615
0.42610
0.42531
0.42381
0.42159
0.41869
0.41513
0.41094
0.40616
0.40083
0.39500
0.38874
0.38210
0.37515
0.36798
0.36066
0.35327
0.34588
0.33846
0.33109
0.32386
0.31681
0.31000
0.30348
0.29727
0.29140
0.28589
0.28073
0.27593
0.27146
0.26732
0.26346
0.25985
0.25643
0.25314
0.24991
0.24667
0.24332
0.23977
0.23601
0.23168
0.22643
0.22002
0.21232
0.20331
0.19312
0.18198
0.17023
0.15834
0.14692
0.13665
0.12817
0.12250
0.12109
0.12522
0.13594
0.15411
0.18037
0.21514
0.25865
0.31091
0.37174
0.44074
0.51706
0.59828
0.68152
0.76356
0.84076
0.90913
0.96475
1.00437
1.02479
1.01444
0.97129
0.90111
0.81606
0.72710
0.64292
0.56990
0.51213
0.47140
0.44732
0.43937
0.44369
0.45587
0.47223
0.48981
0.50639
0.52048
0.53131
0.53885
0.54381
0.54735
0.54992
0.55187
0.55349
0.55502
0.55667
0.55856
0.56078
0.56337
0.56631
0.56952
0.57303
0.57687
0.58105
0.58558
0.59045
0.59566
0.60118
0.60700
0.61309
0.61941
0.62594
0.63263
0.63943
0.64628
0.65312
0.65989
0.66651
0.67296
0.67918
0.68509
0.69058
0.69559
0.70004
0.70387
0.70701
0.70944
0.71111
0.71200
0.71208
0.71137
0.70984
0.70753
0.70444
0.70061
0.69608
0.69089
0.68510
0.67879
0.67202
0.66488
0.65746
0.64981
0.64195
0.63397
0.62594
0.61792
0.60998
0.60217
0.59455
0.58716
0.58003
0.57322
0.56673
0.56059
0.55483
0.54944
0.54444
0.53983
0.53559
0.53171
0.52818
0.52497
0.52206
0.51942
0.51708
0.51500
0.51316
0.51153
0.51011
0.50886
0.50777
0.50682
0.50599
0.50528
0.50466
0.50412
0.50366
0.50327
0.50293
0.50264
0.50240
0.50220
0.50203
0.50190
0.50181
0.50176
0.50174
0.50177
0.50185
0.50188
0.50175
0.50157
0.50147
0.50154
0.50186
0.50253
0.50360
0.50512
0.50715
0.50970
0.51280
0.51645
0.52065
0.52537
0.53060
0.53628
0.54236
0.54878
0.55547
0.56232
0.56924
0.57613
0.58285
0.58926
0.59523
0.60058
0.60515
0.60876
0.61120
0.61227
0.61179
0.60989
0.60674
0.60253
0.59740
0.59152
0.58503
0.57808
0.57080
0.56332
0.55576
0.54825
0.54087
0.53375
0.52696
0.52060
0.51476
0.50949
0.50496
0.50129
0.49785
0.49404
0.48940
0.48358
0.47639
0.46775
0.45772
0.44649
0.43439
0.42107
0.40984
0.40607
0.41375
0.43543
0.47226
0.52394
0.58878
0.66368
0.74408
0.82404
0.89325
0.93780
0.94890
0.92375
0.86555
0.78432
0.69533
0.61119
0.54057
0.48824
0.45807
0.44684
0.44886
0.45926
0.47403
0.48999
0.50480
0.51696
0.52582
0.53156
0.53520
0.53787
0.53998
0.54180
0.54358
0.54550
0.54771
0.55031
0.55335
0.55685
0.56075
0.56499
0.56964
0.57468
0.58012
0.58591
0.59202
0.59843
0.60507
0.61189
0.61885
0.62587
0.63288
0.63981
0.64657
0.65306
0.65920
0.66488
0.66998
0.67441
0.67807
0.68095
0.68299
0.68419
0.68452
0.68399
0.68259
0.68035
0.67728
0.67342
0.66880
0.66348
0.65752
0.65098
0.64395
0.63650
0.62873
0.62076
0.61268
0.60463
0.59673
0.58910
0.58174
0.57467
0.56792
0.56151
0.55547
0.54979
0.54451
0.53961
0.53511
0.53100
0.52727
0.52393
0.52094
0.51829
0.51597
0.51394
0.51218
0.51064
0.50930
0.50810
0.50701
0.50605
0.50522
0.50448
0.50382
0.50322
0.50265
0.50211
0.50159
0.50109
0.50060
0.50013
0.49969
0.49930
0.49896
0.49871
0.49856
0.49854
0.49869
0.49905
0.49966
0.50055
0.50179
0.50342
0.50552
0.50816
0.51140
0.51527
0.51976
0.52486
0.53052
0.53666
0.54317
0.54994
0.55681
0.56359
0.57010
0.57608
0.58130
0.58546
0.58824
0.58938
0.58895
0.58712
0.58404
0.57985
0.57472
0.56879
0.56222
0.55517
0.54780
0.54027
0.53275
0.52540
0.51839
0.51188
0.50604
0.50117
0.49746
0.49414
0.49049
0.48597
0.48021
0.47301
0.46433
0.45431
0.44327
0.43166
0.42021
0.41463
0.42088
0.44274
0.48187
0.53778
0.60784
0.68727
0.76878
0.83795
0.88018
0.88730
0.85768
0.79622
0.71433
0.62644
0.53912
0.45949
0.39278
0.34209
0.30832
0.29034
0.28680
0.29409
0.30813
0.32554
0.34364
0.36046
0.37471
0.38581
0.39386
0.39964
0.40382
0.40689
0.40924
0.41122
0.41312
0.41513
0.41742
0.42007
0.42310
0.42647
0.43007
0.43392
0.43808
0.44256
0.44737
0.45252
0.45798
0.46375
0.46982
0.47615
0.48273
0.48952
0.49648
0.50356
0.51073
0.51793
0.52516
0.53236
0.53942
0.54626
0.55280
0.55894
0.56463
0.56981
0.57441
0.57839
0.58171
0.58434
0.58625
0.58742
0.58784
0.58751
0.58642
0.58459
0.58204
0.57879
0.57488
0.57033
0.56516
0.55940
0.55314
0.54647
0.53946
0.53219
0.52473
0.51715
0.50950
0.50186
0.49426
0.48677
0.47943
0.47227
0.46533
0.45864
0.45224
0.44615
0.44038
0.43495
0.42987
0.42514
0.42079
0.41682
0.41322
0.40996
0.40702
0.40438
0.40201
0.39990
0.39803
0.39638
0.39493
0.39367
0.39258
0.39164
0.39085
0.39018
0.38963
0.38918
0.38882
0.38854
0.38834
0.38820
0.38811
0.38808
0.38808
0.38813
0.38820
0.38830
0.38843
0.38858
0.38874
0.38889
0.38906
0.38929
0.38961
0.39004
0.39063
0.39140
0.39238
0.39361
0.39512
0.39692
0.39907
0.40158
0.40448
0.40781
0.41159
0.41585
0.42062
0.42592
0.43179
0.43842
0.44565
0.45323
0.46094
0.46859
0.47597
0.48292
0.48929
0.49495
0.49979
0.50371
0.50664
0.50851
0.50929
0.50896
0.50751
0.50497
0.50136
0.49674
0.49118
0.48477
0.47771
0.47022
0.46253
0.45480
0.44720
0.43985
0.43286
0.42630
0.42022
0.41465
0.40958
0.40497
0.40078
0.39691
0.39327
0.38993
0.38616
0.38104
0.37405
0.36504
0.35426
0.34231
0.33021
0.31927
0.31101
0.30945
0.31821
0.33977
0.37546
0.42547
0.48884
0.56348
0.64578
0.72704
0.79669
0.84523
0.86436
0.85047
0.80685
0.74125
0.66372
0.57808
0.48925
0.40191
0.32028
0.24722
0.18427
0.13249
0.09242
0.06409
0.04705
0.04030
0.04236
0.05125
0.06520
0.08244
0.10129
0.12036
0.13853
0.15498
0.16917
0.18084
0.19002
0.19703
0.20247
0.20698
0.21068
0.21377
0.21644
0.21887
0.22118
0.22350
0.22591
0.22849
0.23128
0.23430
0.23755
0.24101
0.24463
0.24845
0.25249
0.25677
0.26127
0.26601
0.27099
0.27621
0.28166
0.28735
0.29326
0.29939
0.30573
0.31226
0.31898
0.32587
0.33291
0.34009
0.34738
0.35476
0.36224
0.36978
0.37735
0.38491
0.39241
0.39982
0.40710
0.41421
0.42113
0.42781
0.43423
0.44035
0.44616
0.45161
0.45669
0.46136
0.46562
0.46942
0.47276
0.47561
0.47796
0.47979
0.48108
0.48182
0.48199
0.48159
0.48053
0.47886
0.47659
0.47376
0.47042
0.46659
0.46230
0.45759
0.45249
0.44704
0.44125
0.43517
0.42883
0.42225
0.41546
0.40849
0.40137
0.39412
0.38678
0.37937
0.37192
0.36445
0.35699
0.34955
0.34218
0.33488
0.32769
0.32061
0.31369
0.30694
0.30037
0.29401
0.28789
0.28201
0.27640
0.27108
0.26605
0.26132
0.25686
0.25268
0.24876
0.24510
0.24168
0.23851
0.23556
0.23284
0.23033
0.22802
0.22591
0.22399
0.22225
0.22068
0.21927
0.21802
0.21692
0.21596
0.21512
0.21442
0.21382
0.21334
0.21296
0.21268
0.21248
0.21236
0.21232
0.21234
0.21242
0.21256
0.21274
0.21296
0.21321
0.21350
0.21380
0.21412
0.21445
0.21480
0.21517
0.21556
0.21596
0.21638
0.21682
0.21728
0.21777
0.21830
0.21886
0.21947
0.22013
0.22086
0.22166
0.22254
0.22352
0.22461
0.22583
0.22719
0.22870
0.23039
0.23227
0.23436
0.23669
0.23928
0.24214
0.24531
0.24880
0.25265
0.25688
0.26153
0.26662
0.27211
0.27798
0.28418
0.29068
0.29743
0.30438
0.31150
0.31872
0.32599
0.33326
0.34045
0.34751
0.35437
0.36095
0.36718
0.37299
0.37829
0.38300
0.38703
0.39029
0.39269
0.39415
0.39464
0.39422
0.39292
0.39079
0.38786
0.38420
0.37985
0.37487
0.36932
0.36326
0.35675
0.34988
0.34270
0.33529
0.32774
0.32012
0.31252
0.30503
0.29773
0.29073
0.28405
0.27767
0.27165
0.26602
0.26079
0.25596
0.25151
0.24739
0.24353
0.23985
0.23625
0.23260
0.22876
0.22456
0.21983
0.21436
0.20792
0.20027
0.19115
0.18029
0.16795
0.15524
0.14336
0.13350
0.12683
0.12456
0.12787
0.13797
0.15605
0.18331
0.22095
0.27041
0.33131
0.40140
0.47803
0.55817
0.63844
0.71505
0.78388
0.84039
0.87969
0.89652
0.88764
0.85711
0.81153
0.75348
0.68461
