II
1.11367
1.08698
1.01607
0.90762
0.77032
0.61451
0.45198
0.29271
0.14407
0.01182
-0.09993
-0.18869
-0.25359
-0.29538
-0.31643
-0.31867
-0.30564
-0.28181
-0.25110
-0.21684
-0.18179
-0.14814
-0.11751
-0.09092
-0.06885
-0.05100
-0.03656
-0.02481
-0.01515
-0.00699
0.00014
0.00670
0.01305
0.01949
0.02626
0.03354
0.04143
0.04999
0.05920
0.06896
0.07914
0.08954
0.10030
0.11149
0.12308
0.13505
0.14735
0.15997
0.17286
0.18599
0.19930
0.21275
0.22628
0.23985
0.25338
0.26682
0.28010
0.29315
0.30589
0.31827
0.33026
0.34176
0.35268
0.36296
0.37251
0.38126
0.38917
0.39617
0.40222
0.40729
0.41133
0.41433
0.41627
0.41713
0.41691
0.41562
0.41326
0.40985
0.40542
0.39999
0.39361
0.38629
0.37805
0.36894
0.35904
0.34843
0.33719
0.32538
0.31309
0.30038
0.28731
0.27397
0.26040
0.24668
0.23286
0.21902
0.20520
0.19147
0.17787
0.16447
0.15132
0.13846
0.12596
0.11384
0.10218
0.09101
0.08034
0.07015
0.06044
0.05121
0.04247
0.03420
0.02640
0.01907
0.01222
0.00584
-0.00008
-0.00553
-0.01050
-0.01501
-0.01905
-0.02261
-0.02571
-0.02833
-0.03047
-0.03213
-0.03332
-0.03402
-0.03423
-0.03396
-0.03319
-0.03192
-0.03014
-0.02786
-0.02500
-0.02147
-0.01722
-0.01220
-0.00636
0.00032
0.00784
0.01621
0.02540
0.03539
0.04613
0.05756
0.06961
0.08220
0.09523
0.10858
0.12214
0.13577
0.14934
0.16273
0.17567
0.18796
0.19938
0.20976
0.21893
0.22677
0.23315
0.23799
0.24121
0.24277
0.24263
0.24081
0.23730
0.23216
0.22541
0.21713
0.20753
0.19681
0.18517
0.17279
0.15985
0.14651
0.13293
0.11925
0.10562
0.09216
0.07898
0.06620
0.05390
0.04219
0.03120
0.02105
0.01125
0.00132
-0.00918
-0.02064
-0.03338
-0.04767
-0.06375
-0.08178
-0.10187
-0.12409
-0.14864
-0.17375
-0.19597
-0.21211
-0.21927
-0.21484
-0.19650
-0.16222
-0.11025
-0.03914
0.05230
0.16505
0.30392
0.45997
0.61898
0.76874
0.89901
1.00154
1.07006
1.10030
1.08994
1.03867
0.94816
0.82229
0.67256
0.51174
0.34994
0.19559
0.05539
-0.06562
-0.16411
-0.23845
-0.28869
-0.31658
-0.32557
-0.31836
-0.29791
-0.26870
-0.23458
-0.19872
-0.16368
-0.13133
-0.10295
-0.07912
-0.05981
-0.04433
-0.03157
-0.02096
-0.01195
-0.00405
0.00317
0.01006
0.01694
0.02405
0.03155
0.03957
0.04816
0.05731
0.06694
0.07693
0.08731
0.09813
0.10937
0.12103
0.13308
0.14549
0.15823
0.17126
0.18456
0.19806
0.21173
0.22551
0.23936
0.25319
0.26696
0.28060
0.29403
0.30723
0.32013
0.33263
0.34464
0.35608
0.36688
0.37697
0.38629
0.39477
0.40237
0.40905
0.41475
0.41946
0.42315
0.42578
0.42736
0.42786
0.42729
0.42565
0.42294
0.41919
0.41439
0.40852
0.40166
0.39387
0.38522
0.37577
0.36559
0.35475
0.34332
0.33135
0.31891
0.30606
0.29288
0.27942
0.26574
0.25192
0.23801
0.22407
0.21016
0.19635
0.18269
0.16925
0.15609
0.14325
0.13081
0.11881
0.10726
0.09617
0.08553
0.07536
0.06565
0.05641
0.04765
0.03937
0.03156
0.02423
0.01739
0.01103
0.00516
-0.00023
-0.00514
-0.00955
-0.01348
-0.01693
-0.01989
-0.02237
-0.02437
-0.02589
-0.02693
-0.02750
-0.02760
-0.02723
-0.02640
-0.02506
-0.02314
-0.02056
-0.01728
-0.01324
-0.00841
-0.00276
0.00372
0.01105
0.01921
0.02819
0.03798
0.04853
0.05981
0.07176
0.08432
0.09741
0.11097
0.12499
0.13926
0.15354
0.16760
0.18123
0.19424
0.20644
0.21769
0.22782
0.23672
0.24426
0.25036
0.25493
0.25792
0.25926
0.25893
0.25693
0.25324
0.24782
0.24065
0.23201
0.22215
0.21131
0.19973
0.18759
0.17508
0.16237
0.14960
0.13689
0.12435
0.11205
0.10007
0.08844
0.07720
0.06634
0.05586
0.04571
0.03584
0.02623
0.01674
0.00633
-0.00589
-0.02048
-0.03766
-0.05733
-0.07906
-0.10211
-0.12538
-0.14748
-0.16699
-0.18041
-0.18392
-0.17430
-0.14895
-0.10588
-0.04371
0.03833
0.14039
0.26203
0.40343
0.55826
0.71327
0.85680
0.97896
1.07158
1.12820
1.14415
1.11644
1.04387
0.93049
0.78905
0.63196
0.46992
0.31191
0.16520
0.03534
-0.07384
-0.16021
-0.22278
-0.25956
-0.27463
-0.27268
-0.25795
-0.23421
-0.20472
-0.17232
-0.13935
-0.10767
-0.07870
-0.05335
-0.03209
-0.01491
-0.00132
0.00964
0.01905
0.02733
0.03482
0.04184
0.04863
0.05544
0.06246
0.06982
0.07764
0.08600
0.09492
0.10441
0.11442
0.12487
0.13566
0.14686
0.15847
0.17046
0.18280
0.19545
0.20839
0.22156
0.23493
0.24843
0.26204
0.27567
0.28928
0.30281
0.31618
0.32933
0.34218
0.35466
0.36674
0.37836
0.38941
0.39983
0.40952
0.41843
0.42649
0.43365
0.43986
0.44508
0.44928
0.45243
0.45451
0.45552
0.45544
0.45428
0.45206
0.44878
0.44447
0.43916
0.43290
0.42572
0.41768
0.40875
0.39902
0.38855
0.37744
0.36575
0.35357
0.34097
0.32801
0.31478
0.30132
0.28772
0.27403
0.26031
0.24662
0.23302
0.21955
0.20627
0.19324
0.18049
0.16806
0.15602
0.14438
0.13320
0.12251
0.11231
0.10260
0.09338
0.08465
0.07641
0.06865
0.06137
0.05458
0.04826
0.04243
0.03707
0.03219
0.02777
0.02383
0.02036
0.01735
0.01481
0.01273
0.01111
0.00994
0.00923
0.00897
0.00915
0.00980
0.01097
0.01272
0.01510
0.01816
0.02193
0.02645
0.03173
0.03780
0.04466
0.05232
0.06076
0.06999
0.07998
0.09071
0.10215
0.11426
0.12702
0.14039
0.15416
0.16814
0.18214
0.19597
0.20945
0.22242
0.23472
0.24620
0.25672
0.26613
0.27432
0.28115
0.28653
0.29034
0.29249
0.29289
0.29146
0.28822
0.28331
0.27687
0.26905
0.26000
0.24986
0.23879
0.22694
0.21445
0.20148
0.18819
0.17471
0.16121
0.14784
0.13476
0.12212
0.11010
0.09901
0.08862
0.07860
0.06863
0.05841
0.04765
0.03606
0.02338
0.00935
-0.00626
-0.02369
-0.04315
-0.06484
-0.08952
-0.11640
-0.14109
-0.15958
-0.16843
-0.16474
-0.14616
-0.11088
-0.05765
0.01422
0.10489
0.21397
0.34050
0.48300
0.63699
0.78970
0.92846
1.04268
1.12390
1.16575
1.16399
1.11649
1.02478
0.89936
0.75192
0.59301
0.43202
0.27719
0.13557
0.01308
-0.08646
-0.16270
-0.21632
-0.24861
-0.26147
-0.25739
-0.23948
-0.21147
-0.17766
-0.14231
-0.10770
-0.07544
-0.04668
-0.02213
-0.00204
0.01379
0.02601
0.03573
0.04419
0.05172
0.05865
0.06530
0.07192
0.07873
0.08588
0.09347
0.10157
0.11015
0.11919
0.12863
0.13853
0.14887
0.15964
0.17083
0.18241
0.19436
0.20665
0.21924
0.23209
0.24516
0.25840
0.27176
0.28518
0.29859
0.31196
0.32525
0.33839
0.35127
0.36381
0.37592
0.38753
0.39856
0.40895
0.41863
0.42755
0.43565
0.44289
0.44922
0.45460
0.45901
0.46242
0.46480
0.46613
0.46641
0.46563
0.46379
0.46087
0.45683
0.45173
0.44561
0.43854
0.43059
0.42181
0.41228
0.40204
0.39117
0.37972
0.36775
0.35534
0.34254
0.32941
0.31602
0.30243
0.28870
0.27489
0.26106
0.24728
0.23361
0.22011
0.20685
0.19388
0.18127
0.16907
0.15731
0.14600
0.13516
0.12478
0.11488
0.10546
0.09653
0.08810
0.08017
0.07274
0.06582
0.05940
0.05348
0.04805
0.04313
0.03869
0.03474
0.03127
0.02827
0.02573
0.02364
0.02199
0.02078
0.01997
0.01958
0.01966
0.02024
0.02138
0.02311
0.02547
0.02849
0.03220
0.03662
0.04178
0.04768
0.05435
0.06179
0.07001
0.07901
0.08879
0.09934
0.11066
0.12277
0.13555
0.14883
0.16245
0.17627
0.19011
0.20383
0.21728
0.23029
0.24271
0.25440
0.26521
0.27498
0.28356
0.29081
0.29659
0.30074
0.30312
0.30350
0.30196
0.29864
0.29369
0.28726
0.27950
0.27055
0.26056
0.24966
0.23801
0.22572
0.21294
0.19980
0.18643
0.17297
0.15953
0.14624
0.13322
0.12061
0.10850
0.09703
0.08629
0.07600
0.06551
0.05430
0.04203
0.02850
0.01371
-0.00221
-0.01892
-0.03596
-0.05267
-0.06824
-0.08169
-0.09187
-0.09748
-0.09702
-0.08887
-0.07120
-0.04204
0.00075
0.05948
0.13663
0.23483
0.35691
0.50378
0.66312
0.81961
0.96040
1.07514
1.15598
1.19757
1.19703
1.15398
1.07056
0.95137
0.80550
0.64597
0.48340
0.32667
0.18294
0.05766
-0.04549
-0.12454
-0.17925
-0.21112
-0.22337
-0.21889
-0.20039
-0.17248
-0.13912
-0.10361
-0.06860
-0.03611
-0.00748
0.01659
0.03603
0.05144
0.06400
0.07442
0.08319
0.09082
0.09775
0.10435
0.11093
0.11773
0.12492
0.13262
0.14086
0.14963
0.15883
0.16838
0.17836
0.18878
0.19962
0.21087
0.22251
0.23450
0.24682
0.25942
0.27228
0.28534
0.29856
0.31187
0.32524
0.33858
0.35190
0.36513
0.37817
0.39092
0.40331
0.41525
0.42666
0.43748
0.44763
0.45706
0.46571
0.47352
0.48046
0.48648
0.49154
0.49562
0.49868
0.50070
0.50167
0.50158
0.50041
0.49818
0.49485
0.49040
0.48488
0.47835
0.47089
0.46254
0.45338
0.44347
0.43287
0.42164
0.40985
0.39756
0.38484
0.37174
0.35833
0.34467
0.33082
0.31686
0.30283
0.28880
0.27484
0.26100
0.24735
0.23395
0.22086
0.20815
0.19586
0.18402
0.17263
0.16171
0.15125
0.14128
0.13180
0.12280
0.11430
0.10630
0.09880
0.09180
0.08529
0.07929
0.07378
0.06876
0.06422
0.06016
0.05658
0.05345
0.05078
0.04855
0.04675
0.04536
0.04438
0.04385
0.04381
0.04431
0.04537
0.04704
0.04935
0.05232
0.05599
0.06038
0.06550
0.07137
0.07802
0.08543
0.09364
0.10263
0.11241
0.12299
0.13438
0.14647
0.15912
0.17218
0.18550
0.19894
0.21235
0.22557
0.23845
0.25085
0.26261
0.27357
0.28357
0.29247
0.30009
0.30629
0.31089
0.31374
0.31464
0.31369
0.31099
0.30665
0.30079
0.29355
0.28503
0.27537
0.26470
0.25315
0.24086
0.22797
0.21461
0.20095
0.18711
0.17327
0.15956
0.14615
0.13320
0.12088
0.10935
0.09859
0.08827
0.07805
0.06761
0.05660
0.04470
0.03157
0.01688
0.00031
-0.01848
-0.03981
-0.06382
-0.08871
-0.11197
-0.13106
-0.14345
-0.14660
-0.13798
-0.11504
-0.07524
-0.01602
0.06516
0.16851
0.29112
0.42867
0.57550
0.72461
0.86767
0.99499
1.09558
1.15706
1.16867
1.13287
1.05637
0.94642
0.81084
0.65799
0.49677
0.33664
0.18762
0.05898
-0.04740
-0.13096
-0.19168
-0.23035
-0.24853
-0.24859
-0.23366
-0.20767
-0.17530
-0.14037
-0.10536
-0.07223
-0.04245
-0.01692
0.00396
0.02036
0.03296
0.04298
0.05163
0.05919
0.06605
0.07256
0.07900
0.08559
0.09251
0.09987
0.10772
0.11605
0.12482
0.13398
0.14358
0.15363
0.16410
0.17499
0.18626
0.19790
0.20988
0.22215
0.23469
0.24744
0.26035
0.27339
0.28648
0.29956
0.31260
0.32557
0.33836
0.35088
0.36306
0.37479
0.38602
0.39667
0.40666
0.41594
0.42446
0.43215
0.43896
0.44487
0.44983
0.45380
0.45676
0.45869
0.45957
0.45939
0.45813
0.45580
0.45235
0.44779
0.44217
0.43556
0.42801
0.41960
0.41037
0.40040
0.38974
0.37845
0.36660
0.35425
0.34146
0.32829
0.31481
0.30108
0.28715
0.27310
0.25899
0.24488
0.23083
0.21691
0.20318
0.18971
0.17656
0.16379
0.15145
0.13956
0.12811
0.11712
0.10660
0.09655
0.08699
0.07791
0.06932
0.06122
0.05362
0.04652
0.03991
0.03380
0.02819
0.02306
0.01843
0.01427
0.01059
0.00737
0.00462
0.00232
0.00046
-0.00098
-0.00200
-0.00260
-0.00275
-0.00238
-0.00144
0.00011
0.00231
0.00519
0.00879
0.01313
0.01823
0.02410
0.03075
0.03818
0.04640
0.05539
0.06515
0.07565
0.08688
0.09884
0.11148
0.12459
0.13799
0.15149
0.16491
0.17809
0.19085
0.20305
0.21452
0.22512
0.23470
0.24313
0.25028
0.25602
0.26024
0.26282
0.26366
0.26266
0.25980
0.25523
0.24907
0.24146
0.23254
0.22246
0.21136
0.19938
0.18669
0.17343
0.15977
0.14587
0.13189
0.11800
0.10438
0.09119
0.07877
0.06747
0.05689
0.04662
0.03631
0.02562
0.01426
0.00197
-0.01145
-0.02618
-0.04238
-0.06012
-0.07948
-0.10049
-0.12313
-0.14735
-0.17128
-0.19085
-0.20234
-0.20254
-0.18875
-0.15876
-0.11087
-0.04389
0.04288
0.14962
0.27604
0.42468
0.58549
0.74257
0.88273
0.99546
1.07292
1.10999
1.10423
1.05588
0.96787
0.84584
0.69855
0.53902
0.37751
0.22235
0.08027
-0.04354
-0.14548
-0.22350
-0.27712
-0.30744
-0.31711
-0.31037
-0.29155
-0.26335
-0.22972
-0.19404
-0.15899
-0.12661
-0.09827
-0.07468
-0.05588
-0.04127
-0.02956
-0.01967
-0.01127
-0.00389
0.00287
0.00935
0.01585
0.02259
0.02973
0.03737
0.04555
0.05425
0.06339
0.07291
0.08288
0.09329
0.10414
0.11540
0.12704
0.13905
0.15139
0.16403
0.17691
0.19001
0.20325
0.21661
0.23000
0.24338
0.25668
0.26982
0.28277
0.29547
0.30782
0.31974
0.33112
0.34192
0.35204
0.36143
0.37002
0.37776
0.38461
0.39052
0.39545
0.39937
0.40226
0.40410
0.40487
0.40456
0.40317
0.40070
0.39715
0.39250
0.38678
0.38005
0.37238
0.36384
0.35447
0.34436
0.33355
0.32212
0.31013
0.29763
0.28471
0.27141
0.25780
0.24395
0.22992
0.21577
0.20157
0.18739
0.17328
0.15932
0.14556
0.13208
0.11893
0.10617
0.09384
0.08194
0.07049
0.05948
0.04894
0.03886
0.02926
0.02014
0.01151
0.00336
-0.00429
-0.01146
-0.01812
-0.02429
-0.02997
-0.03515
-0.03985
-0.04406
-0.04778
-0.05104
-0.05382
-0.05613
-0.05800
-0.05941
-0.06040
-0.06096
-0.06109
-0.06074
-0.05982
-0.05829
-0.05608
-0.05316
-0.04949
-0.04504
-0.03980
-0.03374
-0.02688
-0.01920
-0.01073
-0.00148
0.00851
0.01922
0.03059
0.04259
0.05514
0.06827
0.08183
0.09557
0.10925
0.12266
0.13558
0.14784
0.15926
0.16968
0.17897
0.18699
0.19365
0.19885
0.20251
0.20456
0.20497
0.20370
0.20074
0.19609
0.18973
0.18172
0.17231
0.16172
0.15017
0.13787
0.12500
0.11175
0.09826
0.08468
0.07115
0.05776
0.04463
0.03184
0.01946
0.00754
-0.00388
-0.01477
-0.02502
-0.03414
-0.04320
-0.05329
-0.06524
-0.07957
-0.09649
-0.11595
-0.13759
-0.16076
-0.18451
-0.20763
-0.22857
-0.24599
-0.25719
-0.25725
-0.24222
-0.20917
-0.15627
-0.08268
0.01133
0.12448
0.25442
0.39777
0.55017
0.70261
0.84048
0.95167
1.02712
1.06084
1.04992
0.99450
0.89774
0.76712
0.61527
0.45389
0.29290
0.14045
0.00298
-0.11486
-0.21014
-0.28084
-0.32829
-0.35505
-0.36378
-0.35731
-0.33858
-0.31068
-0.27683
-0.24038
-0.20482
-0.17343
-0.14677
-0.12440
-0.10589
-0.09077
-0.07853
-0.06863
-0.06047
-0.05345
-0.04689
-0.04023
-0.03339
-0.02630
-0.01890
-0.01113
-0.00295
0.00567
0.01476
0.02433
0.03437
0.04488
0.05583
0.06719
0.07892
0.09105
0.10352
0.11629
0.12930
0.14249
0.15582
0.16922
0.18264
0.19601
0.20928
0.22239
0.23527
0.24786
0.26009
0.27191
0.28323
0.29400
0.30415
0.31360
0.32228
0.33013
0.33708
0.34310
0.34816
0.35221
0.35523
0.35719
0.35808
0.35788
0.35659
0.35423
0.35079
0.34630
0.34078
0.33427
0.32681
0.31845
0.30923
0.29923
0.28850
0.27713
0.26520
0.25277
0.23988
0.22660
0.21302
0.19921
0.18526
0.17124
0.15720
0.14322
0.12935
0.11565
0.10216
0.08894
0.07603
0.06346
0.05126
0.03948
0.02813
0.01723
0.00681
-0.00313
-0.01254
-0.02142
-0.02977
-0.03761
-0.04497
-0.05185
-0.05826
-0.06421
-0.06970
-0.07475
-0.07935
-0.08351
-0.08722
-0.09049
-0.09330
-0.09566
-0.09756
-0.09898
-0.09991
-0.10035
-0.10027
-0.09966
-0.09850
-0.09677
-0.09445
-0.09156
-0.08803
-0.08378
-0.07877
-0.07293
-0.06625
-0.05871
-0.05031
-0.04107
-0.03101
-0.02020
-0.00868
0.00346
0.01612
0.02921
0.04259
0.05612
0.06966
0.08302
0.09603
0.10853
0.12036
0.13129
0.14113
0.14973
0.15694
0.16264
0.16675
0.16919
0.16993
0.16896
0.16629
0.16195
0.15599
0.14848
0.13960
0.12952
0.11841
0.10644
0.09379
0.08062
0.06710
0.05338
0.03963
0.02601
0.01267
-0.00021
-0.01156
-0.02149
-0.03073
-0.03992
-0.04958
-0.06014
-0.07195
-0.08522
-0.10011
-0.11664
-0.13475
-0.15429
-0.17498
-0.19648
-0.21832
-0.23994
-0.26069
-0.27940
-0.29210
-0.29430
-0.28236
-0.25349
-0.20576
-0.13810
-0.05028
0.05707
0.18246
0.32357
0.47909
0.63723
0.78227
0.90165
0.98597
1.02902
1.02771
0.98215
0.89560
0.77449
0.62840
0.46896
0.30670
0.15040
0.00712
-0.11780
-0.22071
-0.29972
-0.35463
-0.38698
-0.39986
-0.39518
-0.37690
-0.34945
-0.31665
-0.28170
-0.24717
-0.21498
-0.18645
-0.16228
-0.14251
-0.12651
-0.11332
-0.10238
-0.09318
-0.08529
-0.07829
-0.07182
-0.06557
-0.05927
-0.05270
-0.04567
-0.03806
-0.02978
-0.02080
-0.01112
-0.00079
0.01009
0.02138
0.03287
0.04466
0.05683
0.06935
0.08217
0.09526
0.10856
0.12202
0.13559
0.14923
0.16286
0.17643
0.18988
0.20314
0.21615
0.22884
0.24114
0.25297
0.26426
0.27493
0.28491
0.29416
0.30262
0.31022
0.31691
0.32264
0.32737
0.33107
0.33370
0.33526
0.33572
0.33510
0.33338
0.33059
0.32674
0.32186
0.31599
0.30916
0.30142
0.29284
0.28344
0.27328
0.26241
0.25093
0.23892
0.22643
0.21356
0.20036
0.18691
0.17328
0.15952
0.14570
0.13189
0.11813
0.10449
0.09101
0.07776
0.06477
0.05211
0.03981
0.02793
0.01650
0.00551
-0.00502
-0.01509
-0.02469
-0.03383
-0.04249
-0.05068
-0.05839
-0.06563
-0.07238
-0.07866
-0.08446
-0.08978
-0.09462
-0.09900
-0.10290
-0.10634
-0.10932
-0.11184
-0.11392
-0.11555
-0.11674
-0.11751
-0.11789
-0.11783
-0.11725
-0.11609
-0.11429
-0.11179
-0.10855
-0.10453
-0.09973
-0.09410
-0.08766
-0.08040
-0.07232
-0.06346
-0.05383
-0.04348
-0.03245
-0.02078
-0.00855
0.00417
0.01733
0.03085
0.04453
0.05812
0.07141
0.08419
0.09628
0.10750
0.11771
0.12675
0.13451
0.14087
0.14575
0.14906
0.15074
0.15075
0.14905
0.14563
0.14046
0.13365
0.12540
0.11590
0.10534
0.09389
0.08174
0.06903
0.05593
0.04260
0.02916
0.01575
0.00251
-0.01045
-0.02302
-0.03508
-0.04654
-0.05722
-0.06699
-0.07641
-0.08604
-0.09634
-0.10772
-0.12048
-0.13489
-0.15111
-0.16925
-0.18933
-0.21131
-0.23526
-0.26017
-0.28224
-0.29783
-0.30378
-0.29731
-0.27608
-0.23821
-0.18219
-0.10699
-0.01198
0.10304
0.23764
0.38639
0.53946
0.68696
0.81917
0.92655
0.99968
1.02935
1.01060
0.94764
0.84693
0.71622
0.56452
0.40210
0.24050
0.09022
-0.04375
-0.15786
-0.24982
-0.31854
-0.36415
-0.38803
-0.39277
-0.38210
-0.35933
-0.32848
-0.29339
-0.25722
-0.22246
-0.19089
-0.16365
-0.14118
-0.12324
-0.10891
-0.09703
-0.08711
-0.07863
-0.07110
-0.06414
-0.05738
-0.05055
-0.04344
-0.03590
-0.02783
-0.01921
-0.01009
-0.00056
0.00931
0.01961
0.03035
0.04150
0.05304
0.06496
0.07722
0.08979
0.10263
0.11571
0.12897
0.14238
0.15587
0.16939
0.18288
0.19627
0.20949
0.22247
0.23517
0.24753
0.25946
0.27087
0.28169
0.29184
0.30124
0.30985
0.31760
0.32444
0.33034
0.33525
0.33914
0.34200
0.34381
0.34454
0.34421
0.34280
0.34033
0.33682
0.33227
0.32670
0.32011
0.31257
0.30415
0.29492
0.28493
0.27426
0.26298
0.25114
0.23883
0.22609
0.21300
0.19962
0.18601
0.17224
0.15838
0.14448
0.13061
0.11684
0.10322
0.08982
0.07670
0.06392
0.05153
0.03955
0.02799
0.01687
0.00620
-0.00401
-0.01374
-0.02299
-0.03175
-0.04002
-0.04778
-0.05504
-0.06180
-0.06805
-0.07381
-0.07906
-0.08382
-0.08809
-0.09189
-0.09521
-0.09808
-0.10050
-0.10249
-0.10406
-0.10525
-0.10604
-0.10639
-0.10623
-0.10552
-0.10421
-0.10227
-0.09964
-0.09631
-0.09225
-0.08745
-0.08187
-0.07552
-0.06839
-0.06049
-0.05180
-0.04236
-0.03216
-0.02124
-0.00961
0.00270
0.01576
0.02939
0.04336
0.05744
0.07142
0.08512
0.09834
0.11091
0.12267
0.13349
0.14321
0.15173
0.15893
0.16472
0.16902
0.17174
0.17285
0.17228
0.17001
0.16602
0.16020
0.15263
0.14358
0.13332
0.12211
0.11016
0.09768
0.08485
0.07185
0.05880
0.04584
0.03306
0.02055
0.00836
-0.00346
-0.01490
-0.02596
-0.03666
-0.04705
-0.05718
-0.06712
-0.07654
-0.08651
-0.09826
-0.11258
-0.12985
-0.14998
-0.17248
-0.19641
-0.22038
-0.24259
-0.26081
-0.27235
-0.27411
-0.26448
-0.23986
-0.19620
-0.13111
-0.04385
0.06469
0.19195
0.33370
0.48409
0.63561
0.77941
0.90334
0.99508
1.04615
1.05192
1.01168
0.92856
0.80960
0.66513
0.50598
0.34329
0.18643
0.04280
-0.08220
-0.18513
-0.26455
-0.32061
-0.35269
-0.36441
-0.36006
-0.34352
-0.31828
-0.28746
-0.25380
-0.21963
-0.18691
-0.15722
-0.13174
-0.11121
-0.09491
-0.08181
-0.07114
-0.06224
-0.05451
-0.04745
-0.04065
-0.03379
-0.02661
-0.01897
-0.01079
-0.00211
0.00698
0.01639
0.02625
0.03658
0.04735
0.05856
0.07019
0.08222
0.09462
0.10736
0.12040
0.13371
0.14724
0.16095
0.17477
0.18866
0.20255
0.21637
0.23005
0.24357
0.25685
0.26980
0.28234
0.29439
0.30586
0.31669
0.32680
0.33615
0.34467
0.35231
0.35903
0.36479
0.36957
0.37332
0.37603
0.37768
0.37826
0.37777
0.37619
0.37354
0.36977
0.36493
0.35908
0.35229
0.34461
0.33610
0.32682
0.31684
0.30621
0.29500
0.28327
0.27107
0.25849
0.24557
0.23238
0.21898
0.20545
0.19185
0.17823
0.16467
0.15123
0.13799
0.12500
0.11233
0.10004
0.08815
0.07668
0.06564
0.05504
0.04489
0.03520
0.02599
0.01725
0.00901
0.00125
-0.00602
-0.01278
-0.01905
-0.02483
-0.03010
-0.03489
-0.03919
-0.04300
-0.04634
-0.04921
-0.05163
-0.05359
-0.05512
-0.05623
-0.05694
-0.05725
-0.05711
-0.05646
-0.05525
-0.05342
-0.05094
-0.04776
-0.04386
-0.03921
-0.03380
-0.02761
-0.02063
-0.01286
-0.00430
0.00502
0.01510
0.02591
0.03743
0.04962
0.06249
0.07600
0.08993
0.10405
0.11815
0.13202
0.14550
0.15839
0.17053
0.18178
0.19199
0.20104
0.20880
0.21518
0.22008
0.22343
0.22514
0.22517
0.22347
0.22000
0.21461
0.20748
0.19886
0.18903
0.17819
0.16658
0.15438
0.14178
0.12893
0.11597
0.10303
0.09022
0.07762
0.06531
0.05333
0.04173
0.03050
0.01967
0.00919
-0.00096
-0.01080
-0.02016
-0.03014
-0.04186
-0.05602
-0.07297
-0.09266
-0.11464
-0.13809
-0.16181
-0.18421
-0.20329
-0.21750
-0.22455
-0.21922
-0.19739
-0.15618
-0.09398
-0.01042
0.09361
0.21596
0.35325
0.50083
0.65280
0.80088
0.93087
1.03039
1.09070
1.10671
1.07697
1.00371
0.89277
0.75289
0.59582
0.43317
0.27463
0.12789
-0.00132
-0.10920
-0.19395
-0.25342
-0.28719
-0.30017
-0.29688
-0.28140
-0.25736
-0.22791
-0.19577
-0.16318
-0.13193
-0.10338
-0.07839
-0.05741
-0.04039
-0.02684
-0.01584
-0.00636
0.00205
0.00973
0.01696
0.02400
0.03108
0.03837
0.04603
0.05415
0.06282
0.07206
0.08188
0.09223
0.10305
0.11422
0.12575
0.13768
0.14998
0.16261
0.17555
0.18875
0.20215
0.21573
0.22942
0.24317
0.25692
0.27062
0.28420
0.29758
0.31071
0.32351
0.33589
0.34779
0.35916
0.36995
0.38006
0.38943
0.39799
0.40566
0.41240
0.41815
0.42289
0.42657
0.42917
0.43068
0.43108
0.43038
0.42858
0.42569
0.42174
0.41675
0.41077
0.40383
0.39598
0.38729
0.37782
0.36758
0.35662
0.34503
0.33289
0.32029
0.30730
0.29400
0.28046
0.26675
0.25293
0.23908
0.22525
0.21149
0.19787
0.18444
0.17124
0.15832
0.14573
0.13350
0.12168
0.11029
0.09937
0.08897
0.07909
0.06971
0.06083
0.05246
0.04458
0.03720
0.03030
0.02390
0.01797
0.01254
0.00758
0.00309
-0.00092
-0.00445
-0.00752
-0.01011
-0.01223
-0.01388
-0.01506
-0.01578
-0.01602
-0.01579
-0.01510
-0.01393
-0.01219
-0.00983
-0.00678
-0.00302
0.00150
0.00681
0.01293
0.01986
0.02760
0.03616
0.04550
0.05561
0.06645
0.07798
0.09015
0.10289
0.11617
0.12995
0.14401
0.15811
0.17203
0.18558
0.19856
0.21079
0.22212
0.23239
0.24148
0.24925
0.25561
0.26047
0.26374
0.26536
0.26528
0.26346
0.25988
0.25452
0.24754
0.23914
0.22950
0.21881
0.20725
0.19498
0.18218
0.16899
0.15557
0.14207
0.12861
0.11533
0.10234
0.08978
0.07773
0.06632
0.05587
0.04618
0.03664
0.02671
0.01596
0.00401
-0.00944
-0.02459
-0.04158
-0.06046
-0.08121
-0.10371
-0.12806
-0.15310
-0.17461
-0.18871
-0.19207
-0.18190
-0.15595
-0.11248
-0.05032
0.03118
0.13211
0.25205
0.39007
0.54232
0.69676
0.84129
0.96541
1.06018
1.11828
1.13399
1.10317
1.02540
0.91054
0.77017
0.61486
0.45425
0.29696
0.15066
0.02202
-0.08404
-0.16665
-0.22630
-0.26408
-0.28169
-0.28150
-0.26647
-0.24018
-0.20687
-0.17111
-0.13571
-0.10233
-0.07222
-0.04617
-0.02454
-0.00725
0.00621
0.01681
0.02589
0.03407
0.04161
0.04882
0.05596
0.06324
0.07082
0.07882
0.08730
0.09629
0.10576
0.11563
0.12593
0.13667
0.14784
0.15941
0.17137
0.18370
0.19635
0.20929
0.22249
0.23589
0.24946
0.26313
0.27685
0.29056
0.30419
0.31769
0.33102
0.34411
0.35687
0.36921
0.38103
0.39227
0.40285
0.41271
0.42178
0.43002
0.43736
0.44378
0.44922
0.45367
0.45708
0.45945
0.46076
0.46099
0.46015
0.45824
0.45526
0.45122
0.44609
0.43991
0.43276
0.42471
0.41582
0.40617
0.39580
0.38480
0.37323
0.36115
0.34863
0.33573
0.32252
0.30906
0.29542
0.28165
0.26782
0.25399
0.24023
0.22660
0.21316
0.19996
0.18708
0.17456
0.16248
0.15084
0.13967
0.12897
0.11874
0.10900
0.09974
0.09097
0.08270
0.07493
0.06766
0.06089
0.05462
0.04885
0.04357
0.03878
0.03449
0.03068
0.02735
0.02449
0.02209
0.02015
0.01865
0.01759
0.01695
0.01673
0.01696
0.01771
0.01902
0.02094
0.02350
0.02675
0.03070
0.03539
0.04083
0.04705
0.05404
0.06181
0.07036
0.07969
0.08978
0.10063
0.11220
0.12453
0.13750
0.15094
0.16466
0.17849
0.19226
0.20581
0.21896
0.23156
0.24346
0.25451
0.26456
0.27347
0.28111
0.28734
0.29204
0.29508
0.29634
0.29564
0.29298
0.28856
0.28254
0.27509
0.26638
0.25656
0.24579
0.23423
0.22201
0.20927
0.19617
0.18283
0.16937
0.15593
0.14263
0.12957
0.11687
0.10464
0.09299
0.08199
0.07171
0.06177
0.05166
0.04094
0.02919
0.01603
0.00112
-0.01584
-0.03513
-0.05697
-0.08113
-0.10562
-0.12815
-0.14629
-0.15758
-0.15943
-0.14919
-0.12409
-0.08131
-0.01818
0.06628
0.17176
0.29618
0.43565
0.58449
0.73517
0.87837
1.00296
1.09597
1.14475
1.14747
1.10680
1.02694
0.91357
0.77391
0.61667
0.45207
0.29184
0.14775
0.02313
-0.08006
-0.16050
-0.21792
-0.25307
-0.26771
-0.26463
-0.24762
-0.22093
-0.18807
-0.15252
-0.11713
-0.08403
-0.05474
-0.03008
-0.01020
0.00540
0.01790
0.02830
0.03705
0.04466
0.05158
0.05818
0.06479
0.07162
0.07886
0.08658
0.09483
0.10355
0.11264
0.12218
0.13217
0.14260
0.15348
0.16477
0.17646
0.18852
0.20093
0.21363
0.22660
0.23979
0.25315
0.26662
0.28015
0.29368
0.30719
0.32061
0.33384
0.34680
0.35940
0.37157
0.38322
0.39428
0.40470
0.41440
0.42333
0.43144
0.43869
0.44502
0.45040
0.45480
0.45819
0.46054
0.46183
0.46206
0.46120
0.45925
0.45615
0.45194
0.44667
0.44042
0.43323
0.42517
0.41628
0.40664
0.39631
0.38533
0.37378
0.36171
0.34918
0.33626
0.32301
0.30949
0.29576
0.28189
0.26794
0.25397
0.24006
0.22626
0.21263
0.19926
0.18619
0.17350
0.16123
0.14938
0.13798
0.12703
0.11653
0.10651
0.09696
0.08790
0.07932
0.07124
0.06365
0.05655
0.04996
0.04385
0.03825
0.03313
0.02850
0.02435
0.02068
0.01748
0.01473
0.01243
0.01058
0.00914
0.00812
0.00753
0.00741
0.00783
0.00882
0.01043
0.01269
0.01563
0.01929
0.02369
0.02884
0.03476
0.04147
0.04897
0.05726
0.06634
0.07621
0.08685
0.09826
0.11046
0.12330
0.13661
0.15021
0.16393
0.17762
0.19111
0.20425
0.21687
0.22882
0.23996
0.25014
0.25921
0.26704
0.27348
0.27841
0.28168
0.28318
0.28263
0.28008
0.27575
0.26982
0.26249
0.25392
0.24430
0.23377
0.22251
0.21065
0.19834
0.18569
0.17284
0.15991
0.14699
0.13418
0.12157
0.10926
0.09730
0.08578
0.07474
0.06423
0.05444
0.04572
0.03680
0.02653
0.01408
-0.00102
-0.01892
-0.03943
-0.06200
-0.08576
-0.10950
-0.13167
-0.15037
-0.16384
-0.16986
-0.16341
-0.14044
-0.09813
-0.03489
0.04959
0.15443
0.27748
0.41537
0.56348
0.71607
0.86346
0.99106
1.08714
1.14352
1.15556
1.12215
1.04575
0.93232
0.79061
0.63252
0.46948
0.31099
0.16458
0.03587
-0.07147
-0.15569
-0.21548
-0.24982
-0.26336
-0.26062
-0.24566
-0.22210
-0.19308
-0.16132
-0.12907
-0.09814
-0.06986
-0.04515
-0.02444
-0.00773
0.00544
0.01607
0.02512
0.03300
0.04005
0.04657
0.05286
0.05913
0.06558
0.07237
0.07964
0.08745
0.09585
0.10487
0.11446
0.12457
0.13509
0.14590
0.15707
0.16862
0.18051
0.19272
0.20520
0.21790
0.23078
0.24380
0.25689
0.27000
0.28308
0.29606
0.30888
0.32146
0.33374
0.34565
0.35710
0.36804
0.37844
0.38821
0.39727
0.40555
0.41300
0.41954
0.42514
0.42975
0.43335
0.43590
0.43738
0.43779
0.43712
0.43539
0.43259
0.42875
0.42389
0.41806
0.41128
0.40362
0.39512
0.38585
0.37586
0.36516
0.35382
0.34193
0.32956
0.31680
0.30373
0.29040
0.27690
0.26329
0.24964
0.23599
0.22242
0.20897
0.19569
0.18264
0.16986
0.15738
0.14525
0.13351
0.12218
0.11129
0.10089
0.09098
0.08158
0.07267
0.06425
0.05632
0.04886
0.04187
0.03536
0.02931
0.02372
0.01858
0.01390
0.00967
0.00588
0.00254
-0.00036
-0.00282
-0.00484
-0.00643
-0.00758
-0.00830
-0.00860
-0.00848
-0.00790
-0.00678
-0.00507
-0.00271
0.00033
0.00410
0.00862
0.01391
0.01999
0.02685
0.03450
0.04292
0.05210
0.06201
0.07262
0.08388
0.09574
0.10818
0.12118
0.13453
0.14800
0.16137
0.17444
0.18703
0.19895
0.21004
0.22016
0.22916
0.23693
0.24335
0.24832
0.25177
0.25362
0.25382
0.25232
0.24909
0.24409
0.23739
0.22916
0.21962
0.20895
0.19735
0.18498
0.17202
0.15862
0.14494
0.13113
0.11731
0.10362
0.09018
0.07709
0.06446
0.05239
0.04095
0.03048
0.02077
0.01112
0.00092
-0.01029
-0.02291
-0.03722
-0.05338
-0.07145
-0.09140
-0.11307
-0.13621
-0.16080
-0.18493
-0.20434
-0.21524
-0.21442
-0.19923
-0.16755
-0.11784
-0.04912
0.03904
0.14651
0.27261
0.41600
0.56982
0.72172
0.86041
0.97603
1.06011
1.10558
1.10678
1.05983
0.96936
0.84616
0.70061
0.54251
0.38106
0.22487
0.08197
-0.04076
-0.14092
-0.21826
-0.27317
-0.30672
-0.32067
-0.31741
-0.30003
-0.27228
-0.23858
-0.20344
-0.16914
-0.13716
-0.10857
-0.08405
-0.06387
-0.04793
-0.03569
-0.02626
-0.01831
-0.01106
-0.00435
0.00210
0.00850
0.01505
0.02191
0.02916
0.03690
0.04515
0.05389
0.06310
0.07271
0.08276
0.09326
0.10417
0.11547
0.12714
0.13916
0.15148
0.16406
0.17687
0.18985
0.20296
0.21614
0.22933
0.24247
0.25549
0.26832
0.28089
0.29318
0.30510
0.31656
0.32749
0.33779
0.34740
0.35625
0.36429
0.37146
0.37772
0.38301
0.38732
0.39061
0.39287
0.39407
0.39421
0.39329
0.39132
0.38829
0.38424
0.37919
0.37313
0.36607
0.35809
0.34925
0.33963
0.32929
0.31831
0.30674
0.29467
0.28215
0.26925
0.25603
0.24256
0.22891
0.21513
0.20128
0.18743
0.17364
0.15996
0.14646
0.13320
0.12022
0.10758
0.09535
0.08358
0.07225
0.06139
0.05100
0.04108
0.03164
0.02267
0.01418
0.00617
-0.00135
-0.00839
-0.01494
-0.02100
-0.02658
-0.03167
-0.03628
-0.04041
-0.04405
-0.04722
-0.04991
-0.05213
-0.05388
-0.05517
-0.05600
-0.05637
-0.05630
-0.05579
-0.05484
-0.05337
-0.05131
-0.04859
-0.04517
-0.04099
-0.03603
-0.03026
-0.02367
-0.01626
-0.00804
0.00099
0.01078
0.02131
0.03253
0.04438
0.05679
0.06968
0.08297
0.09660
0.11041
0.12418
0.13768
0.15071
0.16308
0.17463
0.18518
0.19459
0.20274
0.20951
0.21479
0.21849
0.22055
0.22091
0.21951
0.21632
0.21138
0.20483
0.19683
0.18755
0.17715
0.16577
0.15358
0.14074
0.12740
0.11372
0.09985
0.08595
0.07217
0.05866
0.04559
0.03315
0.02180
0.01121
0.00097
-0.00931
-0.01997
-0.03131
-0.04362
-0.05711
-0.07197
-0.08838
-0.10643
-0.12621
-0.14776
-0.17108
-0.19606
-0.21984
-0.23850
-0.24854
-0.24696
-0.23122
-0.19924
-0.14941
-0.08058
0.00793
0.11632
0.24453
0.39532
0.55674
0.71324
0.85191
0.96253
1.03755
1.07206
1.06383
1.01330
0.92356
0.80038
0.65241
0.49223
0.33032
0.17508
0.03324
-0.09004
-0.19127
-0.26853
-0.32157
-0.35173
-0.36198
-0.35638
-0.33734
-0.30909
-0.27562
-0.24025
-0.20561
-0.17368
-0.14575
-0.12242
-0.10365
-0.08870
-0.07651
-0.06649
-0.05811
-0.05084
-0.04425
-0.03797
-0.03169
-0.02517
-0.01823
-0.01076
-0.00271
0.00590
0.01498
0.02439
0.03423
0.04450
0.05522
0.06634
0.07786
0.08974
0.10196
0.11447
0.12723
0.14021
0.15336
0.16661
0.17993
0.19323
0.20647
0.21957
0.23245
0.24507
0.25738
0.26929
0.28072
0.29157
0.30179
0.31129
0.32001
0.32791
0.33492
0.34100
0.34612
0.35024
0.35334
0.35539
0.35639
0.35631
0.35517
0.35296
0.34970
0.34539
0.34001
0.33360
0.32625
0.31800
0.30893
0.29909
0.28855
0.27738
0.26563
0.25338
0.24068
0.22761
0.21421
0.20057
0.18674
0.17278
0.15877
0.14477
0.13083
0.11703
0.10343
0.09009
0.07708
0.06445
0.05223
0.04043
0.02907
0.01815
0.00770
-0.00229
-0.01179
-0.02081
-0.02933
-0.03735
-0.04488
-0.05190
-0.05842
-0.06444
-0.06995
-0.07498
-0.07951
-0.08356
-0.08713
-0.09025
-0.09290
-0.09512
-0.09691
-0.09829
-0.09929
-0.09988
-0.10000
-0.09960
-0.09863
-0.09703
-0.09478
-0.09182
-0.08815
-0.08373
-0.07854
-0.07258
-0.06584
-0.05832
-0.05002
-0.04096
-0.03115
-0.02062
-0.00939
0.00251
0.01506
0.02829
0.04197
0.05586
0.06973
0.08338
0.09661
0.10924
0.12111
0.13205
0.14193
0.15063
0.15803
0.16403
0.16854
0.17150
0.17285
0.17254
0.17055
0.16686
0.16144
0.15422
0.14540
0.13525
0.12404
0.11200
0.09934
0.08626
0.07292
0.05949
0.04609
0.03283
0.01981
0.00710
-0.00526
-0.01722
-0.02879
-0.03998
-0.05081
-0.06134
-0.07163
-0.08146
-0.09168
-0.10350
-0.11771
-0.13471
-0.15450
-0.17668
-0.20047
-0.22467
-0.24768
-0.26753
-0.28212
-0.29031
-0.28708
-0.26786
-0.22941
-0.16984
-0.08859
0.01356
0.13448
0.27070
0.41743
0.56851
0.71635
0.84863
0.95212
1.01727
1.03836
1.01342
0.94429
0.83662
0.69926
0.54319
0.38027
0.22047
0.07176
-0.05986
-0.17040
-0.25785
-0.32074
-0.35802
-0.37422
-0.37376
-0.36062
-0.33836
-0.31014
-0.27866
-0.24621
-0.21468
-0.18550
-0.15971
-0.13789
-0.12024
-0.10640
-0.09468
-0.08438
-0.07522
-0.06694
-0.05930
-0.05207
-0.04506
-0.03808
-0.03099
-0.02364
-0.01591
-0.00773
0.00100
0.01031
0.02025
0.03081
0.04199
0.05376
0.06605
0.07880
0.09190
0.10525
0.11870
0.13215
0.14576
0.15947
0.17319
0.18686
0.20039
0.21371
0.22674
0.23941
0.25166
0.26341
0.27461
0.28520
0.29511
0.30428
0.31267
0.32022
0.32688
0.33259
0.33733
0.34104
0.34368
0.34521
0.34563
0.34494
0.34317
0.34032
0.33643
0.33150
0.32559
0.31871
0.31091
0.30224
0.29274
0.28247
0.27147
0.25982
0.24758
0.23482
0.22161
0.20803
0.19416
0.18011
0.16595
0.15175
0.13755
0.12342
0.10940
0.09555
0.08194
0.06860
0.05559
0.04293
0.03067
0.01884
0.00745
-0.00346
-0.01388
-0.02380
-0.03321
-0.04210
-0.05048
-0.05835
-0.06572
-0.07261
-0.07903
-0.08498
-0.09049
-0.09554
-0.10013
-0.10427
-0.10796
-0.11118
-0.11394
-0.11622
-0.11800
-0.11929
-0.12007
-0.12031
-0.12000
-0.11913
-0.11766
-0.11559
-0.11287
-0.10949
-0.10541
-0.10061
-0.09506
-0.08871
-0.08153
-0.07349
-0.06452
-0.05462
-0.04391
-0.03246
-0.02039
-0.00780
0.00519
0.01845
0.03187
0.04531
0.05863
0.07169
0.08433
0.09639
0.10773
0.11815
0.12750
0.13559
0.14224
0.14724
0.15042
0.15174
0.15128
0.14912
0.14536
0.14009
0.13342
0.12546
0.11632
0.10613
0.09503
0.08314
0.07062
0.05762
0.04430
0.03081
0.01734
0.00407
-0.00883
-0.02116
-0.03261
-0.04315
-0.05316
-0.06297
-0.07291
-0.08329
-0.09440
-0.10650
-0.11985
-0.13468
-0.15120
-0.16960
-0.19005
-0.21273
-0.23886
-0.26546
-0.28778
-0.30173
-0.30387
-0.29143
-0.26231
-0.21507
-0.14890
-0.06370
0.04000
0.16100
0.29744
0.44672
0.60090
0.74591
0.86949
0.96186
1.01567
1.02606
0.99064
0.90986
0.79217
0.64937
0.49227
0.33071
0.17353
0.02857
-0.09735
-0.20047
-0.28040
-0.33760
-0.37315
-0.38878
-0.38688
-0.37046
-0.34318
-0.30936
-0.27376
-0.23925
-0.20713
-0.17836
-0.15355
-0.13296
-0.11650
-0.10376
-0.09395
-0.08593
-0.07850
-0.07146
-0.06462
-0.05779
-0.05080
-0.04353
-0.03586
-0.02773
-0.01910
-0.00994
-0.00029
0.00982
0.02034
0.03131
0.04269
0.05448
0.06662
0.07910
0.09187
0.10490
0.11812
0.13151
0.14500
0.15855
0.17208
0.18554
0.19887
0.21199
0.22483
0.23732
0.24936
0.26090
0.27191
0.28229
0.29197
0.30088
0.30895
0.31613
0.32235
0.32758
0.33179
0.33494
0.33701
0.33799
0.33788
0.33667
0.33438
0.33102
0.32662
0.32121
0.31483
0.30753
0.29936
0.29033
0.28049
0.26993
0.25873
0.24696
0.23470
0.22202
0.20900
0.19570
0.18220
0.16855
0.15482
0.14108
0.12738
0.11378
0.10034
0.08711
0.07415
0.06150
0.04921
0.03733
0.02592
0.01498
0.00451
-0.00549
-0.01500
-0.02404
-0.03260
-0.04068
-0.04828
-0.05539
-0.06202
-0.06817
-0.07384
-0.07903
-0.08374
-0.08797
-0.09173
-0.09501
-0.09782
-0.10016
-0.10204
-0.10346
-0.10442
-0.10493
-0.10498
-0.10461
-0.10381
-0.10248
-0.10055
-0.09795
-0.09462
-0.09053
-0.08563
-0.07990
-0.07333
-0.06592
-0.05767
-0.04861
-0.03877
-0.02819
-0.01692
-0.00503
0.00742
0.02032
0.03360
0.04714
0.06086
0.07454
0.08796
0.10089
0.11313
0.12449
0.13482
0.14396
0.15177
0.15816
0.16302
0.16627
0.16785
0.16773
0.16587
0.16225
0.15690
0.14997
0.14164
0.13207
0.12145
0.10992
0.09767
0.08484
0.07160
0.05811
0.04453
0.03100
0.01768
0.00471
-0.00775
-0.01945
-0.03020
-0.04036
-0.05028
-0.06031
-0.07076
-0.08193
-0.09409
-0.10751
-0.12241
-0.13900
-0.15749
-0.17803
-0.20081
-0.22695
-0.25327
-0.27512
-0.28849
-0.28999
-0.27691
-0.24715
-0.19925
-0.13242
-0.04648
0.05809
0.18017
0.31800
0.46882
0.62296
0.76651
0.88765
0.97693
1.02716
1.03351
0.99344
0.90808
0.78739
0.64287
0.48510
0.32379
0.16774
0.02486
-0.09809
-0.19815
-0.27507
-0.32929
-0.36196
-0.37488
-0.37053
-0.35207
-0.32336
-0.28889
-0.25328
-0.21880
-0.18682
-0.15832
-0.13390
-0.11380
-0.09788
-0.08558
-0.07601
-0.06788
-0.06027
-0.05309
-0.04610
-0.03910
-0.03191
-0.02441
-0.01648
-0.00807
0.00086
0.01030
0.02023
0.03057
0.04135
0.05258
0.06422
0.07625
0.08864
0.10135
0.11436
0.12761
0.14106
0.15467
0.16837
0.18212
0.19584
0.20948
0.22297
0.23624
0.24920
0.26179
0.27394
0.28561
0.29671
0.30717
0.31689
0.32582
0.33388
0.34104
0.34723
0.35242
0.35658
0.35968
0.36170
0.36263
0.36248
0.36124
0.35892
0.35555
0.35115
0.34575
0.33940
0.33212
0.32393
0.31489
0.30508
0.29459
0.28348
0.27183
0.25971
0.24720
0.23437
0.22127
0.20798
0.19457
0.18108
0.16760
0.15417
0.14085
0.12771
0.11478
0.10214
0.08983
0.07789
0.06640
0.05537
0.04481
0.03473
0.02511
0.01597
0.00731
-0.00088
-0.00860
-0.01584
-0.02260
-0.02889
-0.03470
-0.04004
-0.04490
-0.04928
-0.05320
-0.05664
-0.05961
-0.06210
-0.06413
-0.06569
-0.06679
-0.06742
-0.06759
-0.06730
-0.06656
-0.06537
-0.06366
-0.06134
-0.05834
-0.05462
-0.05012
-0.04481
-0.03866
-0.03167
-0.02383
-0.01517
-0.00569
0.00456
0.01554
0.02719
0.03944
0.05220
0.06539
0.07890
0.09264
0.10646
0.12014
0.13346
0.14620
0.15818
0.16922
0.17916
0.18787
0.19520
0.20106
0.20534
0.20799
0.20892
0.20811
0.20551
0.20115
0.19518
0.18773
0.17897
0.16905
0.15811
0.14633
0.13385
0.12085
0.10749
0.09394
0.08037
0.06696
0.05388
0.04147
0.03014
0.01958
0.00943
-0.00063
-0.01088
-0.02161
-0.03305
-0.04541
-0.05888
-0.07362
-0.08976
-0.10741
-0.12664
-0.14750
-0.17002
-0.19393
-0.21626
-0.23299
-0.24055
-0.23590
-0.21645
-0.18012
-0.12533
-0.05097
0.04357
0.15840
0.29473
0.45085
0.61129
0.76193
0.89119
0.98997
1.05170
1.07229
1.05019
0.98635
0.88421
0.75004
0.59602
0.43419
0.27434
0.12448
-0.00911
-0.12191
-0.21113
-0.27574
-0.31646
-0.33576
-0.33744
-0.32361
-0.29850
-0.26643
-0.23101
-0.19520
-0.16125
-0.13078
-0.10471
-0.08328
-0.06608
-0.05208
-0.04051
-0.03081
-0.02243
-0.01492
-0.00787
-0.00096
0.00611
0.01352
0.02143
0.02991
0.03897
0.04856
0.05856
0.06888
0.07965
0.09084
0.10246
0.11446
0.12683
0.13954
0.15254
0.16580
0.17928
0.19292
0.20668
0.22049
0.23431
0.24805
0.26165
0.27504
0.28816
0.30097
0.31338
0.32530
0.33665
0.34734
0.35732
0.36650
0.37484
0.38227
0.38876
0.39427
0.39875
0.40220
0.40458
0.40588
0.40609
0.40522
0.40327
0.40026
0.39619
0.39108
0.38492
0.37776
0.36969
0.36076
0.35106
0.34065
0.32959
0.31796
0.30583
0.29326
0.28031
0.26706
0.25357
0.23990
0.22612
0.21229
0.19847
0.18474
0.17114
0.15774
0.14460
0.13178
0.11934
0.10734
0.09579
0.08472
0.07411
0.06398
0.05434
0.04518
0.03651
0.02833
0.02065
0.01347
0.00678
0.00059
-0.00510
-0.01030
-0.01500
-0.01921
-0.02293
-0.02616
-0.02891
-0.03118
-0.03298
-0.03430
-0.03516
-0.03557
-0.03552
-0.03504
-0.03410
-0.03265
-0.03061
-0.02792
-0.02453
-0.02039
-0.01548
-0.00977
-0.00324
0.00411
0.01228
0.02125
0.03099
0.04148
0.05267
0.06451
0.07694
0.08989
0.10331
0.11717
0.13122
0.14521
0.15891
0.17211
0.18462
0.19625
0.20685
0.21627
0.22438
0.23108
0.23627
0.23987
0.24183
0.24211
0.24068
0.23754
0.23270
0.22610
0.21783
0.20814
0.19728
0.18550
0.17302
0.16002
0.14669
0.13319
0.11966
0.10623
0.09299
0.08004
0.06744
0.05523
0.04345
0.03211
0.02119
0.01068
0.00063
-0.00911
-0.01963
-0.03183
-0.04627
-0.06324
-0.08271
-0.10432
-0.12743
-0.15110
-0.17406
-0.19513
-0.21132
-0.21836
-0.21264
-0.19127
-0.15208
-0.09363
-0.01515
0.08337
0.20126
0.33713
0.48731
0.64103
0.78684
0.91435
1.01418
1.07802
1.09858
1.07049
0.99750
0.88831
0.75197
0.59785
0.43569
0.27554
0.12754
-0.00215
-0.11099
-0.19744
-0.26092
-0.30188
-0.32173
-0.32292
-0.30885
-0.28392
-0.25207
-0.21664
-0.18057
-0.14614
-0.11505
-0.08833
-0.06641
-0.04905
-0.03543
-0.02414
-0.01446
-0.00601
0.00165
0.00889
0.01604
0.02333
0.03096
0.03904
0.04764
0.05676
0.06634
0.07629
0.08670
0.09757
0.10887
0.12059
0.13272
0.14523
0.15808
0.17124
0.18468
0.19835
0.21220
0.22619
0.24025
0.25432
0.26835
0.28226
0.29605
0.30962
0.32286
0.33571
0.34807
0.35987
0.37103
0.38150
0.39121
0.40011
0.40813
0.41525
0.42142
0.42661
0.43078
0.43392
0.43600
0.43702
0.43695
0.43581
0.43358
0.43024
0.42579
0.42032
0.41387
0.40651
0.39830
0.38931
0.37959
0.36920
0.35822
0.34669
0.33469
0.32227
0.30950
0.29644
0.28316
0.26971
0.25616
0.24257
0.22901
0.21554
0.20222
0.18912
0.17629
0.16382
0.15175
0.14011
0.12891
0.11816
0.10785
0.09800
0.08862
0.07969
0.07124
0.06325
0.05574
0.04870
0.04215
0.03607
0.03047
0.02535
0.02071
0.01654
0.01285
0.00964
0.00690
0.00462
0.00281
0.00146
0.00057
0.00012
0.00012
0.00056
0.00145
0.00288
0.00489
0.00756
0.01093
0.01505
0.01994
0.02562
0.03212
0.03942
0.04754
0.05645
0.06614
0.07657
0.08769
0.09947
0.11184
0.12475
0.13818
0.15196
0.16584
0.17960
0.19306
0.20600
0.21826
0.22967
0.24009
0.24936
0.25738
0.26402
0.26919
0.27281
0.27481
0.27512
0.27371
0.27053
0.26559
0.25901
0.25099
0.24169
0.23130
0.21998
0.20790
0.19522
0.18209
0.16868
0.15513
0.14158
0.12817
0.11504
0.10232
0.09014
0.07870
0.06833
0.05857
0.04892
0.03893
0.02821
0.01645
0.00335
-0.01128
-0.02759
-0.04570
-0.06562
-0.08735
-0.11090
-0.13677
-0.16107
-0.17925
-0.18742
-0.18237
-0.16159
-0.12322
-0.06609
0.01026
0.10566
0.21923
0.34940
0.49396
0.64838
0.79974
0.93461
1.04218
1.11421
1.14505
1.13167
1.07362
0.97356
0.84167
0.69010
0.52955
0.36934
0.21732
0.07994
-0.03779
-0.13244
-0.20354
-0.25225
-0.28019
-0.28947
-0.28266
-0.26282
-0.23347
-0.19863
-0.16266
-0.12832
-0.09674
-0.06874
-0.04479
-0.02503
-0.00928
0.00299
0.01263
0.02081
0.02836
0.03545
0.04233
0.04921
0.05626
0.06362
0.07139
0.07964
0.08838
0.09762
0.10730
0.11740
0.12793
0.13889
0.15026
0.16203
0.17415
0.18660
0.19935
0.21236
0.22558
0.23897
0.25248
0.26605
0.27961
0.29312
0.30649
0.31967
0.33263
0.34530
0.35757
0.36938
0.38062
0.39124
0.40115
0.41029
0.41862
0.42607
0.43260
0.43817
0.44276
0.44633
0.44887
0.45036
0.45079
0.45016
0.44847
0.44575
0.44199
0.43723
0.43145
0.42467
0.41696
0.40839
0.39904
0.38896
0.37824
0.36693
0.35510
0.34283
0.33017
0.31719
0.30395
0.29052
0.27695
0.26331
0.24965
0.23603
0.22252
0.20916
0.19602
0.18315
0.17060
0.15842
0.14667
0.13538
0.12455
0.11419
0.10429
0.09487
0.08592
0.07745
0.06947
0.06196
0.05494
0.04840
0.04235
0.03677
0.03168
0.02706
0.02292
0.01925
0.01604
0.01330
0.01102
0.00918
0.00780
0.00685
0.00634
0.00625
0.00659
0.00743
0.00882
0.01082
0.01346
0.01680
0.02085
0.02564
0.03120
0.03754
0.04466
0.05256
0.06124
0.07069
0.08089
0.09181
0.10343
0.11571
0.12867
0.14213
0.15590
0.16978
0.18360
0.19717
0.21033
0.22292
0.23478
0.24576
0.25573
0.26456
0.27212
0.27828
0.28295
0.28601
0.28737
0.28695
0.28469
0.28069
0.27508
0.26800
0.25959
0.24999
0.23935
0.22781
0.21551
0.20262
0.18929
0.17568
0.16195
0.14826
0.13479
0.12170
0.10936
0.09853
0.08867
0.07921
0.06960
0.05943
0.04833
0.03602
0.02232
0.00711
-0.00964
-0.02788
-0.04748
-0.06823
-0.08983
-0.11192
-0.13404
-0.15528
-0.17188
-0.17948
-0.17445
-0.15392
-0.11574
-0.05850
0.01846
0.11506
0.23048
0.36315
0.51204
0.67181
0.82636
0.96180
1.06733
1.13514
1.16048
1.14165
1.07994
0.97974
0.84842
0.69639
0.53516
0.37426
0.22153
0.08327
-0.03584
-0.13267
-0.20571
-0.25500
-0.28219
-0.29051
-0.28286
-0.26223
-0.23303
-0.19905
-0.16342
-0.12864
-0.09656
-0.06840
-0.04472
-0.02546
-0.00991
0.00285
0.01339
0.02230
0.03007
0.03714
0.04389
0.05062
0.05759
0.06497
0.07288
0.08136
0.09040
0.09992
0.10979
0.12003
0.13071
0.14183
0.15335
0.16527
0.17754
0.19015
0.20306
0.21623
0.22961
0.24316
0.25683
0.27056
0.28430
0.29797
0.31152
0.32488
0.33804
0.35090
0.36336
0.37534
0.38676
0.39755
0.40764
0.41696
0.42547
0.43310
0.43981
0.44556
0.45032
